1825.0
1831.0
1813.0
1815.0
1851.0
1852.0
1855.0
1860.0
1838.0
1842.0
1855.0
1845.0
1849.0
1866.0
1880.0
1870.0
1867.0
1873.0
1862.0
1861.0
1870.0
1872.0
1868.0
1860.0
1893.0
1901.0
1895.0
1879.0
1884.0
1895.0
1882.0
1870.0
1871.0
1879.0
1884.0
1886.0
1871.0
1867.0
1855.0
1857.0
1852.0
1901.0
1880.0
1872.0
1901.0
1894.0
1889.0
1867.0
1876.0
1879.0
1873.0
1866.0
1861.0
1875.0
1890.0
1866.0
1868.0
1837.0
1841.0
1838.0
1819.0
1832.0
1842.0
1860.0
1856.0
1842.0
1842.0
1832.0
1851.0
1838.0
1818.0
1834.0
1829.0
1856.0
1842.0
1817.0
1824.0
1829.0
1828.0
1838.0
1836.0
1827.0
1839.0
1864.0
1869.0
1872.0
1854.0
1855.0
1869.0
1848.0
1848.0
1852.0
1864.0
1875.0
1865.0
1864.0
1856.0
1835.0
1831.0
1851.0
1860.0
1852.0
1877.0
1888.0
1896.0
1909.0
1891.0
1887.0
1896.0
1888.0
1898.0
1896.0
1908.0
1919.0
1904.0
1901.0
1888.0
1867.0
1876.0
1888.0
1892.0
1900.0
1923.0
1923.0
1911.0
1908.0
1887.0
1889.0
1887.0
1890.0
1861.0
1890.0
1903.0
1875.0
1847.0
1848.0
1851.0
1852.0
1839.0
1831.0
1832.0
1849.0
1872.0
1864.0
1847.0
1842.0
1844.0
1857.0
1847.0
1834.0
1835.0
1842.0
1847.0
1841.0
1832.0
1820.0
1829.0
1815.0
1832.0
1820.0
1808.0
1857.0
1856.0
1856.0
1835.0
1842.0
1857.0
1867.0
1853.0
1850.0
1851.0
1874.0
1855.0
1853.0
1860.0
1857.0
1850.0
1852.0
1862.0
1858.0
1876.0
1904.0
1879.0
1868.0
1855.0
1868.0
1867.0
1851.0
1864.0
1863.0
1863.0
1886.0
1846.0
1826.0
1840.0
1825.0
1829.0
1836.0
1817.0
1803.0
1846.0
1850.0
1830.0
1855.0
1841.0
1838.0
1856.0
1833.0
1832.0
1836.0
1858.0
1850.0
1845.0
1837.0
1856.0
1844.0
1858.0
1860.0
1861.0
1874.0
1910.0
1912.0
1900.0
1879.0
1885.0
1894.0
1888.0
1880.0
1881.0
1895.0
1903.0
1905.0
1888.0
1878.0
1892.0
1909.0
1898.0
1870.0
1886.0
1902.0
1917.0
1916.0
1918.0
1890.0
1912.0
1898.0
1894.0
1871.0
1865.0
1880.0
1883.0
1862.0
1858.0
1841.0
1841.0
1847.0
1854.0
1856.0
1872.0
1888.0
1878.0
1863.0
1872.0
1891.0
1895.0
1896.0
1863.0
1864.0
1846.0
1863.0
1835.0
1831.0
1837.0
1828.0
1834.0
1832.0
1808.0
1819.0
1830.0
1850.0
1864.0
1879.0
1852.0
1861.0
1890.0
1906.0
1943.0
1910.0
1896.0
1899.0
1879.0
1867.0
1873.0
1875.0
1872.0
1873.0
1869.0
1856.0
1869.0
1865.0
1863.0
1851.0
1856.0
1858.0
1850.0
1851.0
1854.0
1853.0
1867.0
1864.0
1859.0
1856.0
1864.0
1858.0
1851.0
1851.0
1864.0
1860.0
1880.0
1876.0
1882.0
1872.0
1867.0
1879.0
1871.0
1895.0
1869.0
1855.0
1868.0
1853.0
1848.0
1833.0
1835.0
1835.0
1853.0
1842.0
1841.0
1853.0
1865.0
1855.0
1852.0
1844.0
1865.0
1872.0
1861.0
1859.0
1874.0
1878.0
1907.0
1908.0
1901.0
1913.0
1887.0
1880.0
1886.0
1877.0
1885.0
1908.0
1915.0
1912.0
1903.0
1906.0
1911.0
1879.0
1866.0
1864.0
1861.0
1884.0
1877.0
1865.0
1851.0
1854.0
1857.0
1844.0
1856.0
1849.0
1869.0
1883.0
1878.0
1866.0
1852.0
1866.0
1870.0
1851.0
1846.0
1850.0
1854.0
1866.0
1848.0
1841.0
1831.0
1837.0
1826.0
1830.0
1834.0
1831.0
1862.0
1879.0
1879.0
1866.0
1848.0
1868.0
1868.0
1862.0
1852.0
1872.0
1886.0
1880.0
1870.0
1898.0
1896.0
1863.0
1869.0
1869.0
1860.0
1880.0
1906.0
1899.0
1901.0
1896.0
1870.0
1865.0
1853.0
1845.0
1847.0
1871.0
1869.0
1852.0
1850.0
1855.0
1855.0
1837.0
1833.0
1828.0
1839.0
1872.0
1888.0
1879.0
1863.0
1860.0
1868.0
1867.0
1860.0
1868.0
1879.0
1889.0
1882.0
1868.0
1874.0
1864.0
1864.0
1860.0
1888.0
1896.0
1902.0
1908.0
1908.0
1903.0
1901.0
1903.0
1913.0
1892.0
1889.0
1896.0
1914.0
1902.0
1906.0
1884.0
1886.0
1876.0
1877.0
1865.0
1875.0
1876.0
1903.0
1883.0
1893.0
1885.0
1868.0
1879.0
1864.0
1856.0
1851.0
1859.0
1875.0
1887.0
1916.0
1885.0
1867.0
1830.0
1842.0
1837.0
1841.0
1843.0
1866.0
1878.0
1877.0
1852.0
1841.0
1861.0
1827.0
1823.0
1816.0
1824.0
1859.0
1838.0
1836.0
1822.0
1811.0
1811.0
1833.0
1828.0
1833.0
1884.0
1911.0
1920.0
1863.0
1871.0
1867.0
1865.0
1847.0
1855.0
1869.0
1879.0
1876.0
1846.0
1826.0
1825.0
1815.0
1816.0
1815.0
1823.0
1825.0
1851.0
1838.0
1840.0
1844.0
1842.0
1850.0
1836.0
1838.0
1833.0
1840.0
1864.0
1843.0
1833.0
1827.0
1836.0
1831.0
1844.0
1833.0
1837.0
1871.0
1879.0
1880.0
1867.0
1852.0
1879.0
1895.0
1856.0
1857.0
1866.0
1898.0
1882.0
1859.0
1848.0
1849.0
1842.0
1841.0
1872.0
1867.0
1857.0
1886.0
1888.0
1880.0
1878.0
1872.0
1897.0
1906.0
1893.0
1887.0
1895.0
1923.0
1891.0
1877.0
1883.0
1883.0
1872.0
1859.0
1871.0
1837.0
1863.0
1872.0
1862.0
1863.0
1828.0
1852.0
1856.0
1854.0
1849.0
1861.0
1867.0
1869.0
1864.0
1831.0
1830.0
1816.0
1841.0
1840.0
1842.0
1843.0
1865.0
1859.0
1853.0
1831.0
1855.0
1864.0
1835.0
1849.0
1834.0
1845.0
1864.0
1862.0
1855.0
1857.0
1851.0
1847.0
1858.0
1856.0
1847.0
1874.0
1880.0
1887.0
1877.0
1859.0
1882.0
1874.0
1852.0
1852.0
1865.0
1867.0
1879.0
1865.0
1864.0
1842.0
1849.0
1856.0
1855.0
1855.0
1869.0
1895.0
1896.0
1891.0
1874.0
1888.0
1894.0
1890.0
1879.0
1877.0
1901.0
1903.0
1886.0
1876.0
1863.0
1854.0
1864.0
1868.0
1863.0
1844.0
1886.0
1893.0
1894.0
1888.0
1847.0
1866.0
1894.0
1871.0
1871.0
1849.0
1871.0
1872.0
1865.0
1880.0
1887.0
1875.0
1847.0
1844.0
1872.0
1844.0
1881.0
1866.0
1859.0
1858.0
1855.0
1847.0
1847.0
1835.0
1833.0
1850.0
1842.0
1832.0
1820.0
1820.0
1816.0
1823.0
1837.0
1840.0
1851.0
1862.0
1874.0
1868.0
1863.0
1858.0
1863.0
1882.0
1869.0
1862.0
1861.0
1884.0
1888.0
1867.0
1854.0
1869.0
1854.0
1849.0
1855.0
1862.0
1862.0
1896.0
1894.0
1894.0
1891.0
1885.0
1892.0
1896.0
1876.0
1873.0
1891.0
1915.0
1888.0
1893.0
1886.0
1898.0
1896.0
1870.0
1874.0
1882.0
1900.0
1920.0
1905.0
1914.0
1907.0
1901.0
1896.0
1873.0
1859.0
1873.0
1859.0
1875.0
1872.0
1844.0
1835.0
1834.0
1832.0
1834.0
1834.0
1844.0
1864.0
1880.0
1882.0
1867.0
1863.0
1861.0
1868.0
1857.0
1857.0
1856.0
1882.0
1866.0
1861.0
1847.0
1857.0
1850.0
1839.0
1845.0
1861.0
1852.0
1899.0
1878.0
1872.0
1867.0
1871.0
1860.0
1872.0
1851.0
1881.0
1888.0
1870.0
1864.0
1855.0
1848.0
1836.0
1859.0
1846.0
1852.0
1826.0
1846.0
1867.0
1875.0
1870.0
1846.0
1843.0
1868.0
1847.0
1842.0
1843.0
1859.0
1859.0
1850.0
1831.0
1840.0
1837.0
1849.0
1857.0
1856.0
1851.0
1882.0
1880.0
1881.0
1862.0
1854.0
1862.0
1871.0
1856.0
1852.0
1843.0
1863.0
1849.0
1853.0
1831.0
1824.0
1829.0
1832.0
1837.0
1854.0
1889.0
1904.0
1897.0
1893.0
1875.0
1885.0
1889.0
1875.0
1882.0
1883.0
1900.0
1906.0
1905.0
1868.0
1848.0
1864.0
1868.0
1855.0
1859.0
1863.0
1888.0
1892.0
1888.0
1888.0
1879.0
1870.0
1880.0
1863.0
1864.0
1864.0
1887.0
1873.0
1864.0
1843.0
1823.0
1826.0
1831.0
1840.0
1830.0
1836.0
1869.0
1884.0
1880.0
1858.0
1856.0
1864.0
1858.0
1854.0
1845.0
1868.0
1863.0
1859.0
1856.0
1837.0
1844.0
1833.0
1835.0
1853.0
1847.0
1881.0
1887.0
1879.0
1883.0
1863.0
1879.0
1891.0
1879.0
1878.0
1879.0
1904.0
1897.0
1867.0
1876.0
1864.0
1864.0
1872.0
1878.0
1866.0
1881.0
1904.0
1895.0
1888.0
1880.0
1891.0
1887.0
1888.0
1874.0
1868.0
1862.0
1876.0
1865.0
1858.0
1856.0
1841.0
1838.0
1844.0
1841.0
1834.0
1857.0
1878.0
1878.0
1891.0
1872.0
1873.0
1872.0
1856.0
1856.0
1842.0
1882.0
1893.0
1869.0
1850.0
1848.0
1829.0
1824.0
1832.0
1829.0
1825.0
1865.0
1868.0
1864.0
1866.0
1860.0
1909.0
1880.0
1857.0
1878.0
1874.0
1878.0
1862.0
1862.0
1862.0
1846.0
1849.0
1834.0
1847.0
1840.0
1838.0
1856.0
1859.0
1854.0
1836.0
1852.0
1862.0
1856.0
1858.0
1848.0
1893.0
1887.0
1868.0
1854.0
1851.0
1855.0
1856.0
1854.0
1856.0
1852.0
1878.0
1892.0
1877.0
1873.0
1888.0
1881.0
1870.0
1859.0
1861.0
1873.0
1879.0
1873.0
1864.0
1854.0
1839.0
1845.0
1846.0
1890.0
1866.0
1859.0
1874.0
1864.0
1864.0
1862.0
1856.0
1859.0
1851.0
1847.0
1840.0
1859.0
1860.0
1832.0
1806.0
1828.0
1825.0
1828.0
1833.0
1848.0
1841.0
1864.0
1882.0
1871.0
1867.0
1870.0
1881.0
1887.0
1867.0
1870.0
1879.0
1883.0
1893.0
1865.0
1866.0
1853.0
1839.0
1851.0
1854.0
1863.0
1860.0
1888.0
1877.0
1876.0
1867.0
1874.0
1880.0
1886.0
1873.0
1864.0
1889.0
1893.0
1870.0
1859.0
1861.0
1850.0
1843.0
1855.0
1854.0
1861.0
1880.0
1903.0
1895.0
1888.0
1892.0
1901.0
1902.0
1884.0
1880.0
1877.0
1893.0
1898.0
1871.0
1871.0
1868.0
1846.0
1847.0
1856.0
1850.0
1845.0
1875.0
1871.0
1867.0
1846.0
1849.0
1862.0
1878.0
1862.0
1860.0
1872.0
1879.0
1874.0
1859.0
1855.0
1848.0
1848.0
1854.0
1845.0
1853.0
1863.0
1887.0
1890.0
1886.0
1870.0
1898.0
1912.0
1883.0
1880.0
1855.0
1870.0
1884.0
1870.0
1853.0
1855.0
1858.0
1864.0
1832.0
1828.0
1826.0
1864.0
1878.0
1886.0
1892.0
1857.0
1879.0
1869.0
1837.0
1850.0
1870.0
1879.0
1851.0
1857.0
1852.0
1821.0
1823.0
1823.0
1903.0
1870.0
1836.0
1861.0
1859.0
1842.0
1823.0
1838.0
1857.0
1853.0
1863.0
1846.0
1847.0
1840.0
1815.0
1815.0
1811.0
1809.0
1815.0
1827.0
1830.0
1832.0
1862.0
1855.0
1872.0
1874.0
1868.0
1874.0
1884.0
1878.0
1876.0
1863.0
1902.0
1882.0
1875.0
1866.0
1870.0
1864.0
1866.0
1868.0
1876.0
1887.0
1913.0
1907.0
1885.0
1886.0
1879.0
1885.0
1887.0
1878.0
1871.0
1876.0
1889.0
1867.0
1867.0
1846.0
1841.0
1842.0
1849.0
1847.0
1846.0
1851.0
1889.0
1908.0
1880.0
1884.0
1874.0
1871.0
1866.0
1869.0
1872.0
1870.0
1904.0
1889.0
1866.0
1875.0
1856.0
1840.0
1829.0
1840.0
1849.0
1857.0
1864.0
1869.0
1862.0
1847.0
1856.0
1837.0
1823.0
1844.0
1858.0
1843.0
1839.0
1831.0
1832.0
1823.0
1817.0
1815.0
1832.0
1848.0
1833.0
1883.0
1900.0
1897.0
1878.0
1876.0
1867.0
1868.0
1855.0
1865.0
1879.0
1891.0
1880.0
1864.0
1854.0
1839.0
1828.0
1834.0
1832.0
1835.0
1860.0
1879.0
1880.0
1871.0
1839.0
1859.0
1876.0
1868.0
1867.0
1877.0
1901.0
1889.0
1862.0
1859.0
1853.0
1856.0
1856.0
1844.0
1850.0
1862.0
1894.0
1883.0
1882.0
1869.0
1871.0
1881.0
1858.0
1835.0
1860.0
1896.0
1874.0
1862.0
1854.0
1847.0
1839.0
1837.0
1849.0
1848.0
1845.0
1904.0
1885.0
1866.0
1844.0
1865.0
1864.0
1851.0
1871.0
1862.0
1868.0
1871.0
1855.0
1849.0
1848.0
1832.0
1832.0
1840.0
1842.0
1850.0
1901.0
1883.0
1879.0
1891.0
1880.0
1876.0
1877.0
1884.0
1876.0
1881.0
1894.0
1887.0
1878.0
1866.0
1850.0
1859.0
1853.0
1841.0
1851.0
1848.0
1882.0
1883.0
1879.0
1873.0
1876.0
1891.0
1890.0
1873.0
1880.0
1891.0
1901.0
1895.0
1887.0
1871.0
1874.0
1884.0
1861.0
1854.0
1845.0
1859.0
1879.0
1878.0
1881.0
1882.0
1874.0
1884.0
1857.0
1852.0
1845.0
1864.0
1868.0
1855.0
1847.0
1850.0
1845.0
1852.0
1840.0
1850.0
1857.0
1885.0
1887.0
1862.0
1862.0
1861.0
1885.0
1877.0
1857.0
1869.0
1885.0
1879.0
1871.0
1857.0
1831.0
1847.0
1835.0
1843.0
1829.0
1836.0
1857.0
1883.0
1880.0
1867.0
1852.0
1868.0
1892.0
1860.0
1857.0
1866.0
1893.0
1886.0
1870.0
1859.0
1854.0
1842.0
1844.0
1841.0
1855.0
1859.0
1883.0
1889.0
1892.0
1863.0
1846.0
1850.0
1876.0
1856.0
1875.0
1847.0
1876.0
1880.0
1848.0
1843.0
1829.0
1833.0
1838.0
1856.0
1851.0
1856.0
1900.0
1910.0
1892.0
1864.0
1859.0
1873.0
1870.0
1872.0
1863.0
1876.0
1882.0
1872.0
1847.0
1837.0
1842.0
1831.0
1835.0
1829.0
1871.0
1882.0
1867.0
1852.0
1860.0
1839.0
1863.0
1877.0
1871.0
1877.0
1860.0
1861.0
1878.0
1851.0
1848.0
1845.0
1833.0
1848.0
1842.0
1845.0
1831.0
1881.0
1865.0
1865.0
1855.0
1853.0
1864.0
1850.0
1847.0
1842.0
1854.0
1869.0
1864.0
1847.0
1846.0
1844.0
1854.0
1855.0
1845.0
1864.0
1854.0
1870.0
1863.0
1856.0
1842.0
1850.0
1863.0
1844.0
1831.0
1840.0
1870.0
1859.0
1815.0
1809.0
1824.0
1797.0
1824.0
1822.0
1836.0
1838.0
1867.0
1880.0
1885.0
1876.0
1867.0
1895.0
1893.0
1887.0
1893.0
1883.0
1907.0
1902.0
1908.0
1903.0
1891.0
1882.0
1880.0
1887.0
1879.0
1888.0
1937.0
1936.0
1931.0
1908.0
1918.0
1913.0
1912.0
1904.0
1901.0
1920.0
1931.0
1907.0
1910.0
1906.0
1900.0
1878.0
1885.0
1877.0
1878.0
1876.0
1894.0
1896.0
1879.0
1864.0
1872.0
1867.0
1869.0
1857.0
1851.0
1871.0
1873.0
1851.0
1856.0
1830.0
1838.0
1842.0
1839.0
1831.0
1846.0
1868.0
1868.0
1855.0
1842.0
1831.0
1841.0
1863.0
1837.0
1868.0
1846.0
1857.0
1873.0
1841.0
1841.0
1827.0
1829.0
1826.0
1852.0
1833.0
1824.0
1872.0
1876.0
1867.0
1843.0
1847.0
1899.0
1889.0
1871.0
1854.0
1858.0
1886.0
1855.0
1866.0
1882.0
1863.0
1856.0
1861.0
1864.0
1837.0
1861.0
1898.0
1901.0
1901.0
1865.0
1874.0
1871.0
1872.0
1859.0
1861.0
1893.0
1908.0
1876.0
1871.0
1863.0
1870.0
1850.0
1848.0
1841.0
1844.0
1871.0
1886.0
1884.0
1871.0
1875.0
1878.0
1882.0
1879.0
1859.0
1887.0
1889.0
1889.0
1903.0
1886.0
1885.0
1882.0
1878.0
1880.0
1877.0
1902.0
1912.0
1903.0
1872.0
1882.0
1888.0
1874.0
1872.0
1868.0
1874.0
1904.0
1886.0
1884.0
1872.0
1867.0
1881.0
1873.0
1861.0
1861.0
1867.0
1894.0
1869.0
1873.0
1895.0
1893.0
1861.0
1856.0
1846.0
1843.0
1854.0
1879.0
1884.0
1888.0
1871.0
1872.0
1869.0
1822.0
1826.0
1829.0
1846.0
1861.0
1839.0
1835.0
1825.0
1827.0
1829.0
1835.0
1837.0
1846.0
1882.0
1900.0
1868.0
1872.0
1868.0
1884.0
1888.0
1879.0
1884.0
1855.0
1896.0
1904.0
1895.0
1878.0
1867.0
1862.0
1859.0
1872.0
1884.0
1875.0
1908.0
1908.0
1894.0
1881.0
1879.0
1888.0
1893.0
1899.0
1885.0
1894.0
1894.0
1883.0
1877.0
1874.0
1890.0
1884.0
1877.0
1886.0
1882.0
1880.0
1893.0
1893.0
1900.0
1885.0
1898.0
1890.0
1868.0
1875.0
1875.0
1896.0
1894.0
1874.0
1890.0
1869.0
1871.0
1864.0
1867.0
1859.0
1869.0
1885.0
1882.0
1884.0
1879.0
1865.0
1879.0
1872.0
1856.0
1847.0
1851.0
1853.0
1843.0
1841.0
1844.0
1840.0
1839.0
1853.0
1879.0
1833.0
1839.0
1859.0
1866.0
1868.0
1868.0
1878.0
1884.0
1864.0
1846.0
1860.0
1847.0
1865.0
1847.0
1840.0
1845.0
1856.0
1852.0
1867.0
1871.0
1842.0
1872.0
1883.0
1877.0
1871.0
1860.0
1862.0
1871.0
1848.0
1845.0
1846.0
1872.0
1864.0
1872.0
1851.0
1837.0
1845.0
1866.0
1837.0
1847.0
1845.0
1872.0
1869.0
1864.0
1857.0
1851.0
1863.0
1837.0
1832.0
1842.0
1891.0
1893.0
1850.0
1840.0
1833.0
1833.0
1819.0
1856.0
1876.0
1873.0
1878.0
1890.0
1885.0
1850.0
1856.0
1885.0
1904.0
1872.0
1878.0
1868.0
1895.0
1890.0
1871.0
1866.0
1872.0
1863.0
1872.0
1876.0
1869.0
1877.0
1906.0
1899.0
1895.0
1891.0
1892.0
1902.0
1891.0
1874.0
1884.0
1889.0
1911.0
1905.0
1876.0
1866.0
1850.0
1853.0
1851.0
1856.0
1857.0
1858.0
1882.0
1864.0
1852.0
1837.0
1846.0
1844.0
1832.0
1823.0
1843.0
1847.0
1852.0
1833.0
1825.0
1849.0
1900.0
1849.0
1822.0
1804.0
1827.0
1836.0
1832.0
1839.0
1849.0
1838.0
1833.0
1831.0
1802.0
1776.0
1780.0
1809.0
1827.0
1807.0
1796.0
1794.0
1793.0
1811.0
1821.0
1816.0
1834.0
1854.0
1878.0
1876.0
1853.0
1867.0
1882.0
1864.0
1852.0
1871.0
1880.0
1890.0
1877.0
1862.0
1859.0
1867.0
1857.0
1854.0
1860.0
1857.0
1896.0
1907.0
1888.0
1871.0
1880.0
1892.0
1912.0
1882.0
1874.0
1855.0
1884.0
1887.0
1866.0
1846.0
1848.0
1844.0
1831.0
1832.0
1844.0
1840.0
1878.0
1876.0
1879.0
1891.0
1855.0
1855.0
1854.0
1849.0
1859.0
1888.0
1899.0
1894.0
1886.0
1876.0
1852.0
1851.0
1844.0
1852.0
1858.0
1858.0
1881.0
1879.0
1865.0
1861.0
1858.0
1858.0
1844.0
1847.0
1831.0
1848.0
1861.0
1846.0
1839.0
1856.0
1830.0
1851.0
1841.0
1840.0
1845.0
1869.0
1900.0
1922.0
1903.0
1868.0
1875.0
1875.0
1864.0
1867.0
1865.0
1882.0
1888.0
1873.0
1856.0
1849.0
1834.0
1840.0
1852.0
1836.0
1848.0
1880.0
1879.0
1897.0
1879.0
1879.0
1880.0
1881.0
1882.0
1887.0
1901.0
1928.0
1913.0
1901.0
1904.0
1898.0
1863.0
1908.0
1899.0
1886.0
1902.0
1919.0
1930.0
1903.0
1880.0
1908.0
1943.0
1917.0
1884.0
1871.0
1878.0
1878.0
1865.0
1878.0
1875.0
1872.0
1859.0
1857.0
1867.0
1854.0
1874.0
1880.0
1873.0
1865.0
1855.0
1866.0
1866.0
1842.0
1859.0
1896.0
1944.0
1889.0
1839.0
1832.0
1832.0
1827.0
1821.0
1833.0
1844.0
1850.0
1871.0
1852.0
1826.0
1784.0
1802.0
1821.0
1815.0
1808.0
1802.0
1820.0
1835.0
1827.0
1811.0
1811.0
1821.0
1840.0
1833.0
1829.0
1835.0
1855.0
1861.0
1868.0
1873.0
1854.0
1865.0
1873.0
1863.0
1869.0
1865.0
1888.0
1878.0
1884.0
1858.0
1865.0
1869.0
1868.0
1877.0
1875.0
1886.0
1944.0
1920.0
1904.0
1887.0
1879.0
1909.0
1889.0
1896.0
1898.0
1914.0
1930.0
1901.0
1876.0
1870.0
1875.0
1874.0
1893.0
1879.0
1877.0
1902.0
1951.0
1929.0
1910.0
1882.0
1899.0
1899.0
1898.0
1891.0
1879.0
1887.0
1886.0
1863.0
1862.0
1847.0
1832.0
1835.0
1844.0
1836.0
1832.0
1849.0
1855.0
1860.0
1852.0
1837.0
1839.0
1842.0
1828.0
1832.0
1837.0
1883.0
1862.0
1860.0
1844.0
1830.0
1820.0
1807.0
1831.0
1834.0
1826.0
1846.0
1860.0
1851.0
1819.0
1808.0
1812.0
1818.0
1812.0
1807.0
1823.0
1828.0
1827.0
1818.0
1817.0
1824.0
1811.0
1813.0
1828.0
1832.0
1858.0
1868.0
1870.0
1868.0
1855.0
1865.0
1861.0
1844.0
1852.0
1857.0
1896.0
1893.0
1860.0
1863.0
1850.0
1843.0
1838.0
1856.0
1875.0
1861.0
1883.0
1893.0
1874.0
1855.0
1864.0
1861.0
1872.0
1857.0
1871.0
1871.0
1882.0
1888.0
1860.0
1850.0
1855.0
1867.0
1875.0
1878.0
1867.0
1875.0
1893.0
1889.0
1888.0
1876.0
1883.0
1900.0
1881.0
1884.0
1879.0
1906.0
1908.0
1892.0
1866.0
1858.0
1860.0
1862.0
1872.0
1866.0
1843.0
1881.0
1880.0
1875.0
1856.0
1847.0
1856.0
1851.0
1847.0
1853.0
1857.0
1875.0
1865.0
1847.0
1831.0
1826.0
1828.0
1828.0
1832.0
1837.0
1834.0
1858.0
1868.0
1837.0
1825.0
1831.0
1852.0
1837.0
1830.0
1848.0
1847.0
1845.0
1831.0
1843.0
1844.0
1834.0
1848.0
1838.0
1842.0
1860.0
1871.0
1878.0
1856.0
1863.0
1868.0
1884.0
1886.0
1866.0
1869.0
1842.0
1892.0
1894.0
1860.0
1859.0
1862.0
1859.0
1860.0
1862.0
1863.0
1870.0
1896.0
1902.0
1902.0
1899.0
1890.0
1896.0
1896.0
1872.0
1890.0
1907.0
1944.0
1915.0
1892.0
1870.0
1896.0
1872.0
1870.0
1875.0
1871.0
1885.0
1910.0
1897.0
1903.0
1880.0
1877.0
1874.0
1853.0
1857.0
1866.0
1863.0
1884.0
1874.0
1873.0
1851.0
1859.0
1855.0
1847.0
1853.0
1845.0
1872.0
1882.0
1886.0
1877.0
1870.0
1873.0
1886.0
1878.0
1861.0
1864.0
1878.0
1876.0
1871.0
1856.0
1851.0
1837.0
1843.0
1839.0
1856.0
1825.0
1867.0
1870.0
1863.0
1852.0
1872.0
1879.0
1845.0
1829.0
1841.0
1838.0
1857.0
1850.0
1826.0
1835.0
1836.0
1828.0
1826.0
1820.0
1822.0
1849.0
1893.0
1889.0
1868.0
1839.0
1868.0
1870.0
1864.0
1868.0
1876.0
1903.0
1902.0
1871.0
1872.0
1864.0
1860.0
1843.0
1850.0
1867.0
1866.0
1894.0
1904.0
1886.0
1882.0
1891.0
1914.0
1911.0
1913.0
1884.0
1910.0
1919.0
1901.0
1897.0
1887.0
1875.0
1888.0
1909.0
1908.0
1887.0
1884.0
1919.0
1907.0
1892.0
1865.0
1878.0
1884.0
1882.0
1880.0
1875.0
1874.0
1867.0
1850.0
1844.0
1835.0
1837.0
1825.0
1835.0
1822.0
1837.0
1851.0
1861.0
1857.0
1855.0
1836.0
1842.0
1852.0
1828.0
1819.0
1835.0
1858.0
1852.0
1811.0
1819.0
1815.0
1815.0
1826.0
1838.0
1830.0
1825.0
1853.0
1877.0
1861.0
1856.0
1856.0
1860.0
1858.0
1837.0
1839.0
1843.0
1847.0
1854.0
1842.0
1829.0
1825.0
1826.0
1827.0
1831.0
1832.0
1843.0
1875.0
1885.0
1868.0
1867.0
1873.0
1885.0
1892.0
1885.0
1887.0
1906.0
1900.0
1884.0
1871.0
1868.0
1895.0
1880.0
1871.0
1875.0
1852.0
1883.0
1891.0
1905.0
1887.0
1881.0
1878.0
1885.0
1865.0
1858.0
1881.0
1920.0
1883.0
1886.0
1871.0
1855.0
1835.0
1848.0
1851.0
1875.0
1872.0
1885.0
1878.0
1867.0
1860.0
1865.0
1879.0
1872.0
1880.0
1885.0
1890.0
1921.0
1885.0
1863.0
1871.0
1863.0
1865.0
1864.0
1866.0
1867.0
1872.0
1889.0
1887.0
1896.0
1860.0
1872.0
1879.0
1852.0
1864.0
1851.0
1885.0
1882.0
1872.0
1852.0
1847.0
1834.0
1837.0
1845.0
1840.0
1856.0
1887.0
1899.0
1883.0
1878.0
1874.0
1865.0
1862.0
1859.0
1869.0
1884.0
1890.0
1884.0
1861.0
1861.0
1861.0
1840.0
1857.0
1876.0
1876.0
1863.0
1870.0
1861.0
1870.0
1857.0
1887.0
1889.0
1860.0
1862.0
1856.0
1873.0
1872.0
1864.0
1846.0
1846.0
1837.0
1840.0
1840.0
1799.0
1826.0
1860.0
1861.0
1847.0
1834.0
1851.0
1852.0
1822.0
1842.0
1825.0
1833.0
1852.0
1864.0
1850.0
1831.0
1818.0
1834.0
1833.0
1815.0
1819.0
1835.0
1867.0
1873.0
1862.0
1858.0
1866.0
1886.0
1865.0
1872.0
1860.0
1872.0
1885.0
1874.0
1872.0
1863.0
1856.0
1855.0
1864.0
1870.0
1846.0
1890.0
1900.0
1896.0
1892.0
1877.0
1882.0
1887.0
1871.0
1872.0
1874.0
1900.0
1892.0
1872.0
1871.0
1857.0
1844.0
1854.0
1865.0
1866.0
1870.0
1896.0
1894.0
1881.0
1888.0
1934.0
1920.0
1904.0
1904.0
1871.0
1856.0
1874.0
1874.0
1862.0
1854.0
1860.0
1849.0
1839.0
1822.0
1841.0
1847.0
1854.0
1850.0
1836.0
1836.0
1852.0
1872.0
1855.0
1855.0
1856.0
1877.0
1871.0
1864.0
1849.0
1841.0
1840.0
1853.0
1840.0
1843.0
1844.0
1880.0
1875.0
1885.0
1855.0
1861.0
1877.0
1875.0
1848.0
1869.0
1873.0
1876.0
1870.0
1852.0
1844.0
1830.0
1828.0
1834.0
1829.0
1829.0
1823.0
1847.0
1860.0
1856.0
1851.0
1848.0
1852.0
1846.0
1842.0
1884.0
1913.0
1889.0
1855.0
1845.0
1840.0
1838.0
1862.0
1853.0
1855.0
1847.0
1873.0
1864.0
1861.0
1864.0
1851.0
1848.0
1869.0
1862.0
1847.0
1836.0
1876.0
1866.0
1862.0
1851.0
1859.0
1862.0
1883.0
1889.0
1875.0
1872.0
1897.0
1896.0
1905.0
1876.0
1896.0
1894.0
1881.0
1885.0
1879.0
1882.0
1888.0
1879.0
1863.0
1850.0
1852.0
1861.0
1853.0
1859.0
1863.0
1909.0
1942.0
1922.0
1895.0
1879.0
1881.0
1883.0
1885.0
1886.0
1886.0
1899.0
1895.0
1859.0
1842.0
1823.0
1819.0
1826.0
1812.0
1806.0
1808.0
1847.0
1864.0
1886.0
1850.0
1832.0
1852.0
1845.0
1847.0
1849.0
1862.0
1872.0
1880.0
1855.0
1834.0
1832.0
1817.0
1822.0
1842.0
1826.0
1833.0
1843.0
1860.0
1842.0
1832.0
1835.0
1870.0
1865.0
1841.0
1830.0
1847.0
1873.0
1859.0
1833.0
1833.0
1841.0
1848.0
1852.0
1849.0
1827.0
1855.0
1878.0
1869.0
1879.0
1885.0
1901.0
1879.0
1863.0
1883.0
1884.0
1897.0
1904.0
1883.0
1877.0
1871.0
1865.0
1861.0
1866.0
1859.0
1859.0
1900.0
1888.0
1896.0
1882.0
1887.0
1896.0
1890.0
1883.0
1886.0
1896.0
1915.0
1918.0
1890.0
1896.0
1882.0
1885.0
1884.0
1880.0
1884.0
1897.0
1916.0
1920.0
1926.0
1914.0
1896.0
1900.0
1894.0
1902.0
1877.0
1885.0
1895.0
1879.0
1865.0
1864.0
1835.0
1844.0
1838.0
1846.0
1869.0
1901.0
1906.0
1861.0
1837.0
1832.0
1829.0
1859.0
1858.0
1865.0
1864.0
1866.0
1865.0
1812.0
1812.0
1774.0
1796.0
1818.0
1811.0
1810.0
1808.0
1841.0
1856.0
1835.0
1830.0
1839.0
1849.0
1840.0
1847.0
1835.0
1860.0
1873.0
1852.0
1848.0
1843.0
1833.0
1829.0
1843.0
1837.0
1842.0
1878.0
1880.0
1884.0
1864.0
1876.0
1887.0
1886.0
1880.0
1905.0
1902.0
1909.0
1901.0
1893.0
1882.0
1887.0
1883.0
1884.0
1875.0
1879.0
1888.0
1924.0
1913.0
1892.0
1886.0
1886.0
1889.0
1879.0
1887.0
1880.0
1897.0
1920.0
1902.0
1885.0
1888.0
1884.0
1892.0
1879.0
1873.0
1869.0
1913.0
1923.0
1905.0
1886.0
1859.0
1851.0
1856.0
1853.0
1857.0
1854.0
1880.0
1893.0
1881.0
1850.0
1810.0
1846.0
1855.0
1813.0
1829.0
1839.0
1846.0
1832.0
1831.0
1823.0
1816.0
1808.0
1805.0
1807.0
1813.0
1823.0
1850.0
1836.0
1839.0
1826.0
1833.0
1844.0
1828.0
1807.0
1832.0
1845.0
1852.0
1864.0
1858.0
1834.0
1820.0
1826.0
1823.0
1826.0
1825.0
1852.0
1876.0
1892.0
1855.0
1849.0
1870.0
1875.0
1857.0
1851.0
1853.0
1876.0
1880.0
1869.0
1868.0
1851.0
1862.0
1870.0
1884.0
1877.0
1896.0
1920.0
1912.0
1901.0
1896.0
1896.0
1903.0
1911.0
1910.0
1903.0
1902.0
1922.0
1906.0
1892.0
1874.0
1877.0
1872.0
1870.0
1876.0
1879.0
1871.0
1899.0
1896.0
1883.0
1874.0
1883.0
1891.0
1867.0
1868.0
1855.0
1893.0
1905.0
1871.0
1862.0
1859.0
1856.0
1848.0
1861.0
1862.0
1844.0
1886.0
1895.0
1871.0
1853.0
1864.0
1869.0
1876.0
1875.0
1864.0
1849.0
1859.0
1874.0
1840.0
1833.0
1820.0
1824.0
1835.0
1824.0
1816.0
1811.0
1858.0
1846.0
1863.0
1853.0
1867.0
1872.0
1849.0
1852.0
1847.0
1890.0
1872.0
1871.0
1865.0
1853.0
1860.0
1846.0
1855.0
1867.0
1879.0
1894.0
1896.0
1894.0
1889.0
1900.0
1907.0
1900.0
1890.0
1878.0
1885.0
1893.0
1898.0
1893.0
1888.0
1871.0
1867.0
1872.0
1857.0
1855.0
1875.0
1889.0
1895.0
1887.0
1864.0
1847.0
1863.0
1844.0
1848.0
1848.0
1860.0
1855.0
1837.0
1834.0
1849.0
1846.0
1815.0
1815.0
1817.0
1837.0
1848.0
1857.0
1861.0
1857.0
1841.0
1851.0
1849.0
1838.0
1840.0
1850.0
1868.0
1855.0
1850.0
1849.0
1848.0
1839.0
1842.0
1842.0
1860.0
1867.0
1885.0
1886.0
1888.0
1888.0
1888.0
1876.0
1866.0
1855.0
1864.0
1867.0
1885.0
1879.0
1872.0
1862.0
1841.0
1844.0
1836.0
1847.0
1846.0
1884.0
1897.0
1896.0
1881.0
1892.0
1895.0
1893.0
1875.0
1882.0
1895.0
1921.0
1907.0
1886.0
1873.0
1871.0
1863.0
1874.0
1871.0
1861.0
1848.0
1888.0
1896.0
1867.0
1850.0
1871.0
1858.0
1850.0
1852.0
1830.0
1851.0
1865.0
1864.0
1851.0
1862.0
1857.0
1845.0
1850.0
1837.0
1833.0
1859.0
1871.0
1878.0
1867.0
1864.0
1882.0
1864.0
1844.0
1848.0
1843.0
1867.0
1851.0
1849.0
1834.0
1838.0
1833.0
1825.0
1852.0
1845.0
1846.0
1897.0
1888.0
1881.0
1880.0
1872.0
1870.0
1866.0
1876.0
1867.0
1888.0
1892.0
1870.0
1863.0
1845.0
1848.0
1832.0
1830.0
1833.0
1818.0
1831.0
1883.0
1876.0
1856.0
1850.0
1847.0
1851.0
1840.0
1867.0
1873.0
1868.0
1873.0
1868.0
1848.0
1848.0
1844.0
1844.0
1850.0
1853.0
1849.0
1890.0
1898.0
1878.0
1871.0
1863.0
1863.0
1872.0
1872.0
1864.0
1862.0
1897.0
1894.0
1867.0
1862.0
1864.0
1861.0
1849.0
1854.0
1859.0
1864.0
1899.0
1897.0
1904.0
1878.0
1868.0
1896.0
1893.0
1880.0
1879.0
1895.0
1907.0
1887.0
1869.0
1873.0
1873.0
1852.0
1868.0
1858.0
1832.0
1862.0
1879.0
1889.0
1862.0
1835.0
1834.0
1823.0
1829.0
1834.0
1827.0
1849.0
1873.0
1872.0
1858.0
1850.0
1856.0
1842.0
1828.0
1827.0
1846.0
1865.0
1842.0
1842.0
1822.0
1833.0
1817.0
1829.0
1823.0
1838.0
1860.0
1909.0
1892.0
1863.0
1856.0
1868.0
1863.0
1852.0
1848.0
1851.0
1862.0
1888.0
1872.0
1872.0
1842.0
1834.0
1833.0
1852.0
1860.0
1869.0
1880.0
1863.0
1877.0
1864.0
1848.0
1876.0
1885.0
1876.0
1878.0
1881.0
1888.0
1868.0
1845.0
1845.0
1848.0
1836.0
1849.0
1851.0
1856.0
1842.0
1869.0
1881.0
1890.0
1870.0
1851.0
1875.0
1872.0
1853.0
1860.0
1868.0
1883.0
1882.0
1867.0
1857.0
1855.0
1853.0
1854.0
1860.0
1859.0
1863.0
1898.0
1903.0
1894.0
1878.0
1890.0
1899.0
1880.0
1894.0
1898.0
1918.0
1908.0
1893.0
1879.0
1893.0
1872.0
1843.0
1850.0
1869.0
1849.0
1870.0
1862.0
1889.0
1879.0
1851.0
1845.0
1859.0
1845.0
1859.0
1865.0
1888.0
1888.0
1874.0
1874.0
1869.0
1860.0
1847.0
1849.0
1852.0
1871.0
1880.0
1867.0
1868.0
1835.0
1848.0
1862.0
1830.0
1823.0
1824.0
1836.0
1864.0
1861.0
1861.0
1856.0
1849.0
1835.0
1847.0
1846.0
1854.0
1864.0
1880.0
1865.0
1859.0
1852.0
1849.0
1839.0
1827.0
1841.0
1848.0
1888.0
1887.0
1861.0
1836.0
1840.0
1828.0
1826.0
1841.0
1852.0
1856.0
1884.0
1883.0
1884.0
1855.0
1859.0
1855.0
1856.0
1856.0
1870.0
1862.0
1874.0
1867.0
1871.0
1858.0
1855.0
1860.0
1854.0
1855.0
1873.0
1886.0
1929.0
1925.0
1895.0
1885.0
1891.0
1908.0
1880.0
1891.0
1900.0
1897.0
1898.0
1891.0
1878.0
1875.0
1862.0
1860.0
1888.0
1875.0
1898.0
1902.0
1917.0
1926.0
1893.0
1877.0
1882.0
1887.0
1876.0
1873.0
1869.0
1887.0
1867.0
1848.0
1839.0
1817.0
1824.0
1840.0
1826.0
1817.0
1828.0
1871.0
1863.0
1880.0
1872.0
1871.0
1881.0
1859.0
1845.0
1851.0
1871.0
1877.0
1855.0
1858.0
1869.0
1840.0
1819.0
1829.0
1819.0
1824.0
1859.0
1872.0
1896.0
1863.0
1833.0
1857.0
1857.0
1864.0
1847.0
1843.0
1876.0
1888.0
1866.0
1860.0
1847.0
1830.0
1830.0
1843.0
1839.0
1841.0
1871.0
1876.0
1886.0
1874.0
1890.0
1899.0
1867.0
1858.0
1872.0
1899.0
1896.0
1883.0
1867.0
1867.0
1861.0
1843.0
1842.0
1838.0
1864.0
1850.0
1880.0
1870.0
1863.0
1869.0
1879.0
1857.0
1836.0
1843.0
1863.0
1869.0
1866.0
1863.0
1839.0
1834.0
1841.0
1831.0
1823.0
1838.0
1830.0
1872.0
1889.0
1888.0
1859.0
1845.0
1861.0
1864.0
1867.0
1851.0
1840.0
1869.0
1870.0
1869.0
1849.0
1830.0
1832.0
1837.0
1838.0
1839.0
1845.0
1865.0
1874.0
1879.0
1893.0
1908.0
1908.0
1883.0
1871.0
1867.0
1876.0
1901.0
1886.0
1900.0
1868.0
1859.0
1862.0
1856.0
1831.0
1851.0
1850.0
1876.0
1883.0
1869.0
1855.0
1877.0
1886.0
1871.0
1866.0
1873.0
1882.0
1883.0
1873.0
1854.0
1856.0
1847.0
1855.0
1847.0
1867.0
1849.0
1879.0
1883.0
1882.0
1867.0
1864.0
1867.0
1873.0
1858.0
1876.0
1901.0
1891.0
1883.0
1877.0
1861.0
1856.0
1860.0
1864.0
1854.0
1859.0
1875.0
1979.0
1952.0
1902.0
1847.0
1870.0
1868.0
1864.0
1863.0
1878.0
1878.0
1890.0
1871.0
1852.0
1824.0
1823.0
1843.0
1837.0
1830.0
1822.0
1867.0
1878.0
1896.0
1867.0
1865.0
1888.0
1879.0
1858.0
1865.0
1866.0
1887.0
1875.0
1848.0
1845.0
1832.0
1823.0
1831.0
1843.0
1838.0
1849.0
1881.0
1868.0
1847.0
1846.0
1843.0
1870.0
1868.0
1877.0
1883.0
1892.0
1884.0
1879.0
1847.0
1846.0
1859.0
1851.0
1844.0
1872.0
1848.0
1876.0
1880.0
1886.0
1872.0
1863.0
1875.0
1899.0
1913.0
1905.0
1875.0
1899.0
1875.0
1859.0
1864.0
1874.0
1852.0
1851.0
1855.0
1865.0
1847.0
1867.0
1874.0
1899.0
1892.0
1858.0
1873.0
1876.0
1874.0
1857.0
1871.0
1893.0
1904.0
1876.0
1876.0
1863.0
1853.0
1857.0
1852.0
1845.0
1869.0
1882.0
1859.0
1878.0
1854.0
1862.0
1863.0
1855.0
1850.0
1857.0
1880.0
1873.0
1857.0
1835.0
1831.0
1843.0
1844.0
1844.0
1861.0
1884.0
1865.0
1870.0
1878.0
1860.0
1845.0
1860.0
1861.0
1856.0
1849.0
1847.0
1865.0
1853.0
1836.0
1834.0
1826.0
1815.0
1823.0
1834.0
1839.0
1838.0
1878.0
1865.0
1863.0
1874.0
1873.0
1871.0
1863.0
1863.0
1880.0
1870.0
1881.0
1859.0
1845.0
1856.0
1852.0
1826.0
1836.0
1838.0
1829.0
1871.0
1883.0
1868.0
1874.0
1858.0
1883.0
1893.0
1873.0
1896.0
1892.0
1887.0
1887.0
1886.0
1854.0
1857.0
1855.0
1852.0
1864.0
1851.0
1833.0
1872.0
1860.0
1871.0
1851.0
1852.0
1871.0
1864.0
1839.0
1850.0
1846.0
1869.0
1880.0
1875.0
1867.0
1868.0
1859.0
1856.0
1861.0
1852.0
1852.0
1884.0
1888.0
1876.0
1865.0
1875.0
1876.0
1854.0
1843.0
1839.0
1866.0
1881.0
1863.0
1856.0
1838.0
1843.0
1851.0
1857.0
1848.0
1853.0
1893.0
1912.0
1877.0
1861.0
1857.0
1873.0
1879.0
1867.0
1856.0
1880.0
1886.0
1877.0
1860.0
1840.0
1827.0
1858.0
1865.0
1871.0
1864.0
1865.0
1883.0
1882.0
1878.0
1874.0
1882.0
1870.0
1878.0
1863.0
1856.0
1855.0
1866.0
1843.0
1843.0
1842.0
1835.0
1827.0
1829.0
1831.0
1843.0
1857.0
1859.0
1877.0
1869.0
1859.0
1867.0
1886.0
1858.0
1859.0
1861.0
1878.0
1881.0
1863.0
1848.0
1840.0
1857.0
1855.0
1838.0
1847.0
1833.0
1882.0
1886.0
1886.0
1876.0
1854.0
1879.0
1863.0
1855.0
1880.0
1873.0
1897.0
1901.0
1866.0
1850.0
1860.0
1854.0
1841.0
1856.0
1851.0
1847.0
1877.0
1864.0
1873.0
1853.0
1848.0
1854.0
1835.0
1846.0
1867.0
1889.0
1867.0
1850.0
1841.0
1826.0
1826.0
1830.0
1840.0
1845.0
1831.0
1860.0
1862.0
1849.0
1840.0
1833.0
1840.0
1837.0
1835.0
1826.0
1817.0
1852.0
1843.0
1825.0
1812.0
1833.0
1812.0
1816.0
1815.0
1822.0
1821.0
1848.0
1850.0
1850.0
1819.0
1833.0
1848.0
1834.0
1834.0
1818.0
1846.0
1858.0
1840.0
1835.0
1823.0
1829.0
1826.0
1827.0
1844.0
1840.0
1846.0
1851.0
1865.0
1849.0
1839.0
1855.0
1854.0
1855.0
1839.0
1840.0
1894.0
1931.0
1875.0
1864.0
1851.0
1829.0
1821.0
1827.0
1839.0
1862.0
1886.0
1871.0
1860.0
1858.0
1825.0
1838.0
1851.0
1836.0
1836.0
1848.0
1885.0
1862.0
1864.0
1851.0
1864.0
1846.0
1858.0
1864.0
1871.0
1880.0
1901.0
1898.0
1891.0
1874.0
1879.0
1887.0
1875.0
1887.0
1874.0
1877.0
1894.0
1877.0
1875.0
1880.0
1883.0
1898.0
1883.0
1864.0
1864.0
1887.0
1889.0
1890.0
1891.0
1869.0
1878.0
1882.0
1864.0
1853.0
1834.0
1860.0
1869.0
1896.0
1959.0
1897.0
1852.0
1836.0
1841.0
1841.0
1844.0
1888.0
1890.0
1893.0
1882.0
1859.0
1856.0
1837.0
1815.0
1819.0
1843.0
1847.0
1844.0
1839.0
1845.0
1842.0
1856.0
1853.0
1883.0
1873.0
1885.0
1910.0
1920.0
1904.0
1897.0
1904.0
1914.0
1904.0
1899.0
1878.0
1910.0
1909.0
1881.0
1875.0
1853.0
1868.0
1854.0
1857.0
1862.0
1854.0
1879.0
1880.0
1886.0
1881.0
1874.0
1873.0
1884.0
1869.0
1867.0
1876.0
1879.0
1867.0
1842.0
1823.0
1835.0
1849.0
1863.0
1822.0
1842.0
1842.0
1864.0
1848.0
1842.0
1837.0
1853.0
1867.0
1844.0
1835.0
1832.0
1841.0
1867.0
1835.0
1825.0
1833.0
1826.0
1815.0
1829.0
1822.0
1820.0
1847.0
1882.0
1873.0
1845.0
1863.0
1886.0
1896.0
1862.0
1864.0
1868.0
1897.0
1895.0
1881.0
1884.0
1870.0
1869.0
1887.0
1873.0
1884.0
1863.0
1904.0
1900.0
1893.0
1893.0
1875.0
1875.0
1877.0
1863.0
1866.0
1874.0
1882.0
1862.0
1873.0
1863.0
1859.0
1882.0
1884.0
1854.0
1847.0
1849.0
1868.0
1874.0
1867.0
1873.0
1878.0
1876.0
1860.0
1835.0
1825.0
1852.0
1844.0
1842.0
1827.0
1835.0
1832.0
1829.0
1835.0
1855.0
1895.0
1895.0
1891.0
1889.0
1879.0
1876.0
1880.0
1879.0
1890.0
1879.0
1877.0
1893.0
1874.0
1863.0
1860.0
1841.0
1840.0
1835.0
1840.0
1835.0
1854.0
1877.0
1868.0
1876.0
1852.0
1869.0
1881.0
1863.0
1871.0
1835.0
1856.0
1901.0
1869.0
1835.0
1830.0
1823.0
1826.0
1831.0
1842.0
1857.0
1883.0
1869.0
1844.0
1845.0
1860.0
1846.0
1855.0
1865.0
1860.0
1859.0
1890.0
1900.0
1906.0
1880.0
1865.0
1878.0
1875.0
1862.0
1863.0
1884.0
1883.0
1884.0
1867.0
1875.0
1861.0
1862.0
1856.0
1853.0
1853.0
1861.0
1902.0
1886.0
1881.0
1871.0
1890.0
1876.0
1873.0
1886.0
1874.0
1890.0
1886.0
1875.0
1864.0
1876.0
1866.0
1851.0
1844.0
1846.0
1858.0
1906.0
1884.0
1894.0
1859.0
1845.0
1848.0
1860.0
1841.0
1848.0
1858.0
1851.0
1838.0
1825.0
1808.0
1797.0
1800.0
1817.0
1818.0
1798.0
1803.0
1845.0
1855.0
1862.0
1823.0
1831.0
1850.0
1852.0
1844.0
1841.0
1861.0
1872.0
1860.0
1835.0
1834.0
1846.0
1846.0
1835.0
1834.0
1834.0
1865.0
1894.0
1900.0
1872.0
1870.0
1882.0
1884.0
1865.0
1872.0
1872.0
1895.0
1889.0
1869.0
1876.0
1864.0
1864.0
1850.0
1846.0
1859.0
1855.0
1889.0
1895.0
1910.0
1886.0
1882.0
1883.0
1896.0
1894.0
1935.0
1956.0
1960.0
1910.0
1890.0
1887.0
1885.0
1870.0
1871.0
1862.0
1880.0
1915.0
1906.0
1886.0
1850.0
1856.0
1863.0
1853.0
1847.0
1857.0
1872.0
1877.0
1889.0
1880.0
1860.0
1864.0
1864.0
1863.0
1872.0
1864.0
1879.0
1902.0
1912.0
1909.0
1894.0
1892.0
1889.0
1884.0
1879.0
1890.0
1881.0
1896.0
1921.0
1884.0
1866.0
1863.0
1864.0
1847.0
1881.0
1872.0
1868.0
1889.0
1883.0
1872.0
1854.0
1862.0
1867.0
1836.0
1831.0
1835.0
1871.0
1856.0
1840.0
1833.0
1876.0
1862.0
1832.0
1815.0
1822.0
1839.0
1867.0
1875.0
1879.0
1871.0
1864.0
1867.0
1864.0
1860.0
1842.0
1855.0
1867.0
1856.0
1850.0
1852.0
1849.0
1846.0
1845.0
1845.0
1858.0
1855.0
1888.0
1883.0
1893.0
1885.0
1896.0
1893.0
1883.0
1875.0
1894.0
1904.0
1897.0
1902.0
1890.0
1879.0
1871.0
1864.0
1881.0
1862.0
1887.0
1904.0
1911.0
1904.0
1900.0
1898.0
1911.0
1902.0
1912.0
1922.0
1909.0
1901.0
1909.0
1884.0
1871.0
1869.0
1862.0
1839.0
1866.0
1858.0
1856.0
1872.0
1869.0
1874.0
1877.0
1864.0
1871.0
1862.0
1848.0
1845.0
1860.0
1880.0
1867.0
1863.0
1856.0
1856.0
1844.0
1832.0
1851.0
1844.0
1845.0
1863.0
1873.0
1858.0
1847.0
1860.0
1853.0
1859.0
1858.0
1846.0
1864.0
1873.0
1856.0
1846.0
1852.0
1840.0
1838.0
1848.0
1858.0
1857.0
1873.0
1871.0
1868.0
1864.0
1857.0
1858.0
1868.0
1853.0
1840.0
1849.0
1870.0
1856.0
1844.0
1833.0
1815.0
1832.0
1832.0
1828.0
1845.0
1885.0
1886.0
1867.0
1839.0
1850.0
1833.0
1837.0
1848.0
1846.0
1858.0
1856.0
1848.0
1829.0
1808.0
1823.0
1814.0
1809.0
1813.0
1823.0
1862.0
1862.0
1861.0
1851.0
1847.0
1871.0
1856.0
1863.0
1873.0
1875.0
1886.0
1883.0
1872.0
1876.0
1864.0
1872.0
1868.0
1868.0
1873.0
1891.0
1907.0
1906.0
1904.0
1889.0
1902.0
1921.0
1896.0
1878.0
1879.0
1895.0
1906.0
1901.0
1896.0
1881.0
1870.0
1908.0
1924.0
1913.0
1881.0
1894.0
1903.0
1891.0
1887.0
1899.0
1909.0
1911.0
1878.0
1859.0
1863.0
1857.0
1840.0
1837.0
1837.0
1829.0
1807.0
1818.0
1807.0
1816.0
1837.0
1858.0
1870.0
1864.0
1836.0
1840.0
1850.0
1856.0
1839.0
1831.0
1841.0
1872.0
1847.0
1838.0
1837.0
1821.0
1797.0
1809.0
1827.0
1833.0
1868.0
1883.0
1880.0
1872.0
1883.0
1894.0
1859.0
1852.0
1863.0
1881.0
1882.0
1888.0
1872.0
1866.0
1852.0
1852.0
1836.0
1864.0
1854.0
1859.0
1881.0
1878.0
1891.0
1885.0
1879.0
1900.0
1885.0
1889.0
1870.0
1895.0
1907.0
1892.0
1887.0
1875.0
1870.0
1856.0
1858.0
1856.0
1874.0
1881.0
1893.0
1908.0
1901.0
1884.0
1886.0
1879.0
1878.0
1884.0
1885.0
1915.0
1911.0
1905.0
1882.0
1872.0
1854.0
1857.0
1850.0
1870.0
1860.0
1894.0
1887.0
1904.0
1884.0
1866.0
1876.0
1877.0
1860.0
1854.0
1920.0
1932.0
1899.0
1894.0
1874.0
1850.0
1849.0
1843.0
1867.0
1878.0
1875.0
1892.0
1881.0
1850.0
1836.0
1852.0
1866.0
1843.0
1835.0
1856.0
1849.0
1864.0
1845.0
1831.0
1826.0
1831.0
1827.0
1833.0
1839.0
1819.0
1851.0
1851.0
1877.0
1863.0
1847.0
1860.0
1855.0
1827.0
1831.0
1838.0
1845.0
1850.0
1849.0
1849.0
1825.0
1811.0
1811.0
1813.0
1805.0
1808.0
1848.0
1865.0
1863.0
1856.0
1858.0
1869.0
1864.0
1853.0
1864.0
1866.0
1899.0
1894.0
1879.0
1856.0
1860.0
1873.0
1873.0
1864.0
1906.0
1930.0
1899.0
1895.0
1880.0
1887.0
1884.0
1883.0
1872.0
1875.0
1870.0
1891.0
1897.0
1863.0
1845.0
1841.0
1838.0
1843.0
1838.0
1859.0
1864.0
1878.0
1882.0
1882.0
1884.0
1876.0
1889.0
1878.0
1863.0
1872.0
1863.0
1883.0
1882.0
1860.0
1853.0
1844.0
1850.0
1847.0
1855.0
1834.0
1851.0
1881.0
1878.0
1871.0
1849.0
1864.0
1868.0
1855.0
1866.0
1857.0
1868.0
1873.0
1860.0
1843.0
1854.0
1843.0
1851.0
1858.0
1843.0
1844.0
1870.0
1876.0
1879.0
1875.0
1874.0
1876.0
1869.0
1862.0
1855.0
1863.0
1871.0
1879.0
1869.0
1858.0
1851.0
1844.0
1849.0
1857.0
1850.0
1870.0
1902.0
1895.0
1878.0
1860.0
1866.0
1884.0
1864.0
1875.0
1882.0
1891.0
1895.0
1886.0
1855.0
1858.0
1871.0
1874.0
1866.0
1859.0
1843.0
1876.0
1884.0
1892.0
1884.0
1859.0
1872.0
1875.0
1880.0
1854.0
1870.0
1909.0
1945.0
1913.0
1892.0
1875.0
1875.0
1877.0
1895.0
1899.0
1886.0
1936.0
1944.0
1917.0
1912.0
1904.0
1908.0
1887.0
1893.0
1881.0
1903.0
1915.0
1897.0
1900.0
1887.0
1893.0
1892.0
1902.0
1877.0
1897.0
1899.0
1915.0
1910.0
1909.0
1901.0
1902.0
1907.0
1890.0
1886.0
1876.0
1941.0
1984.0
1907.0
1856.0
1876.0
1858.0
1843.0
1837.0
1836.0
1840.0
1869.0
1864.0
1841.0
1813.0
1790.0
1817.0
1815.0
1798.0
1803.0
1808.0
1834.0
1829.0
1820.0
1812.0
1824.0
1824.0
1834.0
1866.0
1835.0
1849.0
1879.0
1857.0
1847.0
1843.0
1848.0
1859.0
1846.0
1840.0
1836.0
1856.0
1877.0
1874.0
1848.0
1841.0
1832.0
1826.0
1849.0
1853.0
1854.0
1877.0
1891.0
1887.0
1878.0
1875.0
1888.0
1878.0
1896.0
1886.0
1873.0
1895.0
1897.0
1888.0
1887.0
1875.0
1871.0
1882.0
1873.0
1864.0
1868.0
1864.0
1884.0
1878.0
1859.0
1864.0
1878.0
1867.0
1849.0
1840.0
1861.0
1859.0
1847.0
1864.0
1853.0
1846.0
1853.0
1864.0
1831.0
1832.0
1853.0
1871.0
1858.0
1867.0
1848.0
1845.0
1876.0
1874.0
1856.0
1863.0
1881.0
1871.0
1850.0
1833.0
1842.0
1836.0
1844.0
1841.0
1832.0
1850.0
1876.0
1871.0
1853.0
1820.0
1829.0
1850.0
1849.0
1835.0
1832.0
1839.0
1861.0
1881.0
1861.0
1852.0
1846.0
1836.0
1839.0
1835.0
1854.0
1871.0
1904.0
1888.0
1880.0
1864.0
1846.0
1843.0
1841.0
1832.0
1857.0
1850.0
1857.0
1831.0
1824.0
1832.0
1828.0
1818.0
1824.0
1820.0
1829.0
1856.0
1869.0
1850.0
1859.0
1853.0
1854.0
1849.0
1847.0
1848.0
1857.0
1869.0
1861.0
1839.0
1837.0
1814.0
1827.0
1828.0
1821.0
1830.0
1837.0
1882.0
1847.0
1847.0
1830.0
1823.0
1835.0
1827.0
1832.0
1864.0
1867.0
1868.0
1843.0
1840.0
1850.0
1832.0
1839.0
1837.0
1849.0
1840.0
1877.0
1893.0
1877.0
1871.0
1874.0
1900.0
1894.0
1864.0
1849.0
1890.0
1887.0
1888.0
1896.0
1875.0
1870.0
1868.0
1863.0
1866.0
1851.0
1858.0
1904.0
1922.0
1907.0
1887.0
1853.0
1865.0
1863.0
1861.0
1873.0
1866.0
1867.0
1863.0
1858.0
1833.0
1826.0
1825.0
1841.0
1856.0
1851.0
1848.0
1870.0
1876.0
1868.0
1844.0
1863.0
1862.0
1852.0
1860.0
1863.0
1863.0
1843.0
1844.0
1856.0
1839.0
1815.0
1815.0
1829.0
1835.0
1841.0
1869.0
1870.0
1862.0
1847.0
1856.0
1862.0
1878.0
1853.0
1863.0
1900.0
1897.0
1869.0
1859.0
1854.0
1859.0
1847.0
1867.0
1867.0
1857.0
1868.0
1888.0
1871.0
1848.0
1861.0
1871.0
1873.0
1849.0
1849.0
1862.0
1868.0
1876.0
1880.0
1855.0
1875.0
1874.0
1860.0
1864.0
1853.0
1856.0
1885.0
1901.0
1875.0
1867.0
1853.0
1867.0
1883.0
1845.0
1825.0
1831.0
1847.0
1845.0
1832.0
1824.0
1828.0
1823.0
1815.0
1824.0
1827.0
1821.0
1852.0
1860.0
1856.0
1833.0
1843.0
1861.0
1847.0
1835.0
1847.0
1856.0
1859.0
1847.0
1835.0
1835.0
1838.0
1835.0
1823.0
1819.0
1830.0
1851.0
1913.0
1898.0
1890.0
1866.0
1859.0
1864.0
1845.0
1842.0
1831.0
1872.0
1882.0
1863.0
1867.0
1847.0
1832.0
1812.0
1826.0
1846.0
1856.0
1889.0
1871.0
1879.0
1873.0
1872.0
1877.0
1864.0
1853.0
1866.0
1873.0
1899.0
1891.0
1872.0
1861.0
1853.0
1851.0
1856.0
1852.0
1866.0
1869.0
1888.0
1898.0
1895.0
1872.0
1869.0
1906.0
1895.0
1868.0
1875.0
1890.0
1901.0
1877.0
1862.0
1865.0
1847.0
1848.0
1861.0
1855.0
1850.0
1868.0
1876.0
1873.0
1857.0
1855.0
1854.0
1860.0
1843.0
1850.0
1863.0
1880.0
1873.0
1879.0
1847.0
1840.0
1839.0
1841.0
1847.0
1854.0
1855.0
1900.0
1887.0
1870.0
1858.0
1856.0
1858.0
1870.0
1865.0
1855.0
1878.0
1890.0
1878.0
1865.0
1871.0
1864.0
1858.0
1864.0
1859.0
1858.0
1888.0
1891.0
1897.0
1887.0
1890.0
1902.0
1911.0
1897.0
1883.0
1872.0
1891.0
1897.0
1871.0
1874.0
1863.0
1867.0
1870.0
1860.0
1848.0
1831.0
1871.0
1882.0
1863.0
1846.0
1862.0
1860.0
1852.0
1838.0
1844.0
1867.0
1874.0
1874.0
1856.0
1838.0
1845.0
1858.0
1871.0
1860.0
1852.0
1870.0
1888.0
1914.0
1901.0
1882.0
1885.0
1883.0
1863.0
1861.0
1852.0
1884.0
1887.0
1872.0
1850.0
1852.0
1844.0
1831.0
1868.0
1882.0
1863.0
1888.0
1903.0
1892.0
1888.0
1872.0
1900.0
1891.0
1879.0
1880.0
1889.0
1879.0
1856.0
1857.0
1862.0
1835.0
1827.0
1810.0
1837.0
1831.0
1836.0
1861.0
1863.0
1836.0
1843.0
1838.0
1849.0
1831.0
1834.0
1828.0
1856.0
1870.0
1844.0
1836.0
1819.0
1828.0
1815.0
1837.0
1825.0
1829.0
1867.0
1874.0
1875.0
1858.0
1841.0
1854.0
1857.0
1853.0
1846.0
1852.0
1888.0
1878.0
1869.0
1881.0
1888.0
1863.0
1860.0
1865.0
1847.0
1866.0
1912.0
1932.0
1911.0
1881.0
1880.0
1899.0
1879.0
1878.0
1859.0
1890.0
1890.0
1871.0
1852.0
1842.0
1843.0
1844.0
1859.0
1843.0
1833.0
1857.0
1874.0
1866.0
1862.0
1845.0
1847.0
1859.0
1847.0
1856.0
1856.0
1870.0
1888.0
1866.0
1859.0
1858.0
1847.0
1846.0
1852.0
1855.0
1862.0
1900.0
1888.0
1876.0
1863.0
1859.0
1863.0
1867.0
1861.0
1854.0
1864.0
1886.0
1870.0
1851.0
1854.0
1842.0
1846.0
1839.0
1846.0
1847.0
1868.0
1884.0
1874.0
1886.0
1884.0
1903.0
1943.0
1917.0
1879.0
1855.0
1876.0
1875.0
1893.0
1881.0
1867.0
1872.0
1860.0
1863.0
1840.0
1793.0
1832.0
1847.0
1844.0
1828.0
1833.0
1828.0
1827.0
1814.0
1822.0
1822.0
1853.0
1862.0
1843.0
1838.0
1826.0
1832.0
1832.0
1831.0
1843.0
1853.0
1886.0
1890.0
1874.0
1854.0
1856.0
1863.0
1865.0
1856.0
1850.0
1856.0
1875.0
1858.0
1848.0
1845.0
1843.0
1843.0
1847.0
1864.0
1853.0
1880.0
1887.0
1886.0
1888.0
1877.0
1887.0
1884.0
1869.0
1878.0
1875.0
1887.0
1887.0
1870.0
1855.0
1843.0
1888.0
1897.0
1857.0
1867.0
1862.0
1884.0
1884.0
1855.0
1839.0
1849.0
1872.0
1862.0
1852.0
1848.0
1867.0
1892.0
1860.0
1826.0
1830.0
1830.0
1826.0
1839.0
1835.0
1827.0
1871.0
1886.0
1866.0
1850.0
1852.0
1865.0
1850.0
1847.0
1856.0
1856.0
1877.0
1876.0
1872.0
1872.0
1867.0
1855.0
1868.0
1870.0
1874.0
1877.0
1914.0
1910.0
1924.0
1909.0
1891.0
1891.0
1892.0
1888.0
1915.0
1908.0
1913.0
1891.0
1876.0
1877.0
1872.0
1854.0
1862.0
1871.0
1879.0
1876.0
1886.0
1882.0
1865.0
1860.0
1860.0
1851.0
1845.0
1847.0
1854.0
1867.0
1869.0
1868.0
1853.0
1883.0
1872.0
1836.0
1848.0
1839.0
1844.0
1882.0
1879.0
1877.0
1870.0
1868.0
1863.0
1867.0
1846.0
1838.0
1848.0
1878.0
1851.0
1840.0
1840.0
1836.0
1837.0
1839.0
1854.0
1859.0
1835.0
1880.0
1883.0
1883.0
1878.0
1870.0
1875.0
1869.0
1860.0
1863.0
1875.0
1888.0
1866.0
1871.0
1873.0
1868.0
1853.0
1848.0
1851.0
1849.0
1874.0
1879.0
1884.0
1867.0
1868.0
1894.0
1906.0
1864.0
1859.0
1860.0
1879.0
1904.0
1857.0
1843.0
1853.0
1849.0
1849.0
1840.0
1854.0
1850.0
1881.0
1877.0
1867.0
1861.0
1858.0
1867.0
1843.0
1853.0
1861.0
1867.0
1890.0
1868.0
1876.0
1870.0
1857.0
1882.0
1876.0
1874.0
1876.0
1874.0
1904.0
1899.0
1882.0
1866.0
1883.0
1875.0
1861.0
1864.0
1850.0
1864.0
1866.0
1850.0
1834.0
1847.0
1831.0
1841.0
1850.0
1864.0
1855.0
1876.0
1878.0
1878.0
1875.0
1855.0
1856.0
1858.0
1834.0
1844.0
1837.0
1855.0
1863.0
1870.0
1845.0
1833.0
1816.0
1802.0
1821.0
1813.0
1837.0
1884.0
1874.0
1863.0
1852.0
1847.0
1842.0
1830.0
1845.0
1838.0
1862.0
1870.0
1865.0
1887.0
1907.0
1871.0
1857.0
1864.0
1883.0
1877.0
1892.0
1920.0
1914.0
1919.0
1903.0
1895.0
1892.0
1861.0
1872.0
1866.0
1884.0
1889.0
1871.0
1880.0
1865.0
1884.0
1871.0
1879.0
1876.0
1869.0
1903.0
1907.0
1907.0
1891.0
1880.0
1887.0
1864.0
1860.0
1852.0
1868.0
1873.0
1859.0
1837.0
1832.0
1837.0
1821.0
1828.0
1832.0
1828.0
1844.0
1859.0
1893.0
1939.0
1865.0
1844.0
1850.0
1845.0
1835.0
1838.0
1852.0
1874.0
1853.0
1829.0
1813.0
1813.0
1775.0
1796.0
1806.0
1808.0
1839.0
1841.0
1853.0
1829.0
1838.0
1845.0
1847.0
1846.0
1852.0
1861.0
1880.0
1871.0
1871.0
1856.0
1857.0
1851.0
1840.0
1845.0
1855.0
1870.0
1908.0
1894.0
1887.0
1881.0
1888.0
1897.0
1889.0
1875.0
1887.0
1905.0
1937.0
1906.0
1888.0
1883.0
1880.0
1895.0
1905.0
1886.0
1876.0
1912.0
1916.0
1912.0
1890.0
1879.0
1886.0
1890.0
1875.0
1879.0
1853.0
1891.0
1880.0
1880.0
1863.0
1887.0
1863.0
1870.0
1876.0
1902.0
1900.0
1926.0
1918.0
1892.0
1882.0
1871.0
1892.0
1879.0
1875.0
1872.0
1868.0
1876.0
1847.0
1840.0
1825.0
1812.0
1812.0
1823.0
1821.0
1816.0
1840.0
1847.0
1855.0
1854.0
1853.0
1851.0
1855.0
1835.0
1848.0
1838.0
1865.0
1875.0
1850.0
1845.0
1852.0
1849.0
1839.0
1862.0
1862.0
1867.0
1905.0
1887.0
1879.0
1873.0
1854.0
1872.0
1869.0
1863.0
1860.0
1872.0
1874.0
1878.0
1846.0
1849.0
1840.0
1839.0
1866.0
1860.0
1840.0
1851.0
1885.0
1891.0
1910.0
1879.0
1874.0
1862.0
1861.0
1850.0
1861.0
1895.0
1879.0
1877.0
1860.0
1853.0
1846.0
1830.0
1827.0
1837.0
1836.0
1857.0
1871.0
1865.0
1857.0
1847.0
1872.0
1872.0
1848.0
1845.0
1852.0
1877.0
1865.0
1877.0
1881.0
1861.0
1860.0
1885.0
1880.0
1858.0
1889.0
1900.0
1898.0
1895.0
1882.0
1890.0
1886.0
1855.0
1849.0
1850.0
1855.0
1871.0
1847.0
1839.0
1830.0
1837.0
1826.0
1836.0
1837.0
1842.0
1850.0
1879.0
1900.0
1874.0
1861.0
1880.0
1879.0
1864.0
1857.0
1874.0
1883.0
1867.0
1866.0
1862.0
1846.0
1847.0
1852.0
1863.0
1855.0
1871.0
1904.0
1914.0
1897.0
1888.0
1877.0
1899.0
1934.0
1881.0
1852.0
1869.0
1877.0
1872.0
1862.0
1868.0
1843.0
1856.0
1826.0
1829.0
1818.0
1859.0
1860.0
1858.0
1843.0
1844.0
1866.0
1859.0
1848.0
1878.0
1892.0
1896.0
1882.0
1870.0
1861.0
1864.0
1864.0
1855.0
1858.0
1850.0
1855.0
1882.0
1878.0
1864.0
1840.0
1847.0
1858.0
1854.0
1822.0
1832.0
1838.0
1861.0
1853.0
1836.0
1836.0
1850.0
1840.0
1835.0
1858.0
1854.0
1854.0
1880.0
1881.0
1888.0
1873.0
1886.0
1871.0
1867.0
1865.0
1863.0
1867.0
1863.0
1855.0
1844.0
1841.0
1832.0
1827.0
1815.0
1843.0
1819.0
1861.0
1872.0
1864.0
1851.0
1856.0
1868.0
1869.0
1886.0
1920.0
1911.0
1895.0
1863.0
1875.0
1863.0
1864.0
1855.0
1860.0
1891.0
1896.0
1859.0
1875.0
1891.0
1862.0
1828.0
1844.0
1859.0
1856.0
1850.0
1849.0
1864.0
1877.0
1859.0
1847.0
1858.0
1877.0
1877.0
1859.0
1868.0
1855.0
1880.0
1908.0
1902.0
1907.0
1885.0
1879.0
1911.0
1889.0
1871.0
1872.0
1903.0
1909.0
1935.0
1875.0
1871.0
1872.0
1869.0
1873.0
1873.0
1861.0
1906.0
1898.0
1897.0
1876.0
1852.0
1853.0
1853.0
1868.0
1862.0
1853.0
1878.0
1871.0
1851.0
1866.0
1872.0
1867.0
1862.0
1862.0
1876.0
1872.0
1901.0
1898.0
1900.0
1867.0
1885.0
1884.0
1869.0
1865.0
1851.0
1870.0
1865.0
1876.0
1852.0
1839.0
1843.0
1839.0
1849.0
1839.0
1851.0
1894.0
1889.0
1880.0
1878.0
1873.0
1876.0
1920.0
1917.0
1904.0
1884.0
1902.0
1896.0
1892.0
1875.0
1890.0
1889.0
1879.0
1884.0
1875.0
1848.0
1881.0
1891.0
1900.0
1874.0
1884.0
1873.0
1861.0
1886.0
1855.0
1874.0
1893.0
1891.0
1879.0
1873.0
1881.0
1894.0
1891.0
1905.0
1897.0
1929.0
1939.0
1962.0
1955.0
1926.0
1926.0
1928.0
1913.0
1919.0
1919.0
1943.0
1942.0
1927.0
1924.0
1902.0
1908.0
1900.0
1920.0
1911.0
1916.0
1956.0
1952.0
1948.0
1943.0
1939.0
1957.0
1975.0
1984.0
1971.0
1961.0
1972.0
1973.0
1984.0
1952.0
1945.0
1945.0
1957.0
1954.0
1964.0
1972.0
1987.0
1990.0
1981.0
1968.0
1981.0
1983.0
2000.0
2005.0
1992.0
2015.0
2018.0
2016.0
2026.0
2015.0
2031.0
2042.0
2036.0
2048.0
2061.0
2092.0
2089.0
2092.0
2113.0
2080.0
2082.0
2080.0
2071.0
2069.0
2072.0
2099.0
2094.0
2078.0
2074.0
2064.0
2066.0
2043.0
2056.0
2066.0
2097.0
2145.0
2168.0
2159.0
2125.0
2149.0
2166.0
2171.0
2204.0
2200.0
2188.0
2201.0
2195.0
2200.0
2190.0
2179.0
2189.0
2191.0
2192.0
2189.0
2221.0
2253.0
2233.0
2230.0
2238.0
2270.0
2281.0
2266.0
2267.0
2291.0
2314.0
2329.0
2325.0
2319.0
2327.0
2344.0
2344.0
2368.0
2369.0
2361.0
2422.0
2425.0
2427.0
2400.0
2395.0
2415.0
2415.0
2406.0
2408.0
2426.0
2453.0
2442.0
2423.0
2420.0
2421.0
2416.0
2407.0
2408.0
2409.0
2407.0
2431.0
2419.0
2410.0
2390.0
2378.0
2373.0
2341.0
2303.0
2312.0
2311.0
2304.0
2266.0
2219.0
2201.0
2167.0
2142.0
2132.0
2120.0
2073.0
2094.0
2047.0
2011.0
1985.0
1938.0
1907.0
1873.0
1826.0
1796.0
1787.0
1752.0
1712.0
1688.0
1643.0
1586.0
1551.0
1514.0
1481.0
1472.0
1459.0
1484.0
1441.0
1417.0
1384.0
1361.0
1324.0
1301.0
1281.0
1263.0
1271.0
1284.0
1256.0
1230.0
1211.0
1195.0
1208.0
1213.0
1216.0
1207.0
1219.0
1248.0
1243.0
1241.0
1227.0
1231.0
1259.0
1238.0
1263.0
1271.0
1295.0
1302.0
1333.0
1339.0
1310.0
1323.0
1322.0
1347.0
1363.0
1384.0
1440.0
1453.0
1463.0
1449.0
1443.0
1473.0
1465.0
1483.0
1515.0
1535.0
1553.0
1552.0
1539.0
1567.0
1591.0
1606.0
1632.0
1648.0
1639.0
1685.0
1726.0
1714.0
1748.0
1744.0
1751.0
1772.0
1761.0
1775.0
1791.0
1832.0
1824.0
1817.0
1833.0
1825.0
1824.0
1832.0
1870.0
1863.0
1886.0
1915.0
1951.0
1970.0
1982.0
1992.0
1979.0
1983.0
1948.0
1956.0
1969.0
2003.0
1978.0
1948.0
1920.0
1887.0
1891.0
1912.0
1914.0
1884.0
1866.0
1900.0
1881.0
1874.0
1852.0
1861.0
1877.0
1862.0
1855.0
1872.0
1871.0
1888.0
1873.0
1851.0
1842.0
1855.0
1851.0
1839.0
1833.0
1840.0
1869.0
1874.0
1854.0
1848.0
1815.0
1823.0
1812.0
1781.0
1788.0
1800.0
1833.0
1814.0
1775.0
1756.0
1764.0
1756.0
1739.0
1788.0
1807.0
1789.0
1809.0
1801.0
1791.0
1788.0
1800.0
1778.0
1755.0
1728.0
1731.0
1752.0
1758.0
1740.0
1746.0
1712.0
1714.0
1705.0
1713.0
1728.0
1756.0
1757.0
1798.0
1807.0
1811.0
1783.0
1803.0
1835.0
1795.0
1802.0
1827.0
1868.0
1875.0
1851.0
1841.0
1846.0
1847.0
1862.0
1878.0
1887.0
1911.0
1945.0
1949.0
1967.0
1952.0
1951.0
1987.0
1972.0
1954.0
1967.0
1961.0
2001.0
1985.0
1971.0
1947.0
1945.0
1937.0
1934.0
1950.0
1967.0
1971.0
2000.0
1976.0
1980.0
1958.0
1981.0
1994.0
1958.0
1965.0
1961.0
1978.0
2001.0
1988.0
1984.0
2007.0
1970.0
1959.0
1974.0
1980.0
1969.0
1979.0
2001.0
1989.0
1958.0
1932.0
1918.0
1915.0
1905.0
1902.0
1874.0
1896.0
1870.0
1831.0
1810.0
1786.0
1799.0
1797.0
1787.0
1791.0
1807.0
1848.0
1833.0
1856.0
1820.0
1800.0
1802.0
1781.0
1786.0
1767.0
1778.0
1790.0
1771.0
1748.0
1728.0
1727.0
1712.0
1729.0
1724.0
1728.0
1731.0
1764.0
1767.0
1769.0
1752.0
1773.0
1796.0
1774.0
1774.0
1781.0
1815.0
1815.0
1815.0
1808.0
1801.0
1790.0
1808.0
1799.0
1810.0
1819.0
1882.0
1857.0
1854.0
1857.0
1856.0
1875.0
1880.0
1865.0
1869.0
1897.0
1943.0
1930.0
1907.0
1908.0
1909.0
1908.0
1909.0
1926.0
1919.0
1933.0
2005.0
1981.0
1947.0
1935.0
1940.0
1943.0
1928.0
1903.0
1882.0
1891.0
1895.0
1869.0
1865.0
1834.0
1822.0
1831.0
1796.0
1804.0
1808.0
1830.0
1840.0
1838.0
1832.0
1824.0
1829.0
1826.0
1816.0
1813.0
1825.0
1851.0
1838.0
1825.0
1804.0
1813.0
1834.0
1828.0
1843.0
1851.0
1859.0
1914.0
1932.0
1927.0
1925.0
1941.0
1954.0
1952.0
1962.0
1941.0
1968.0
1974.0
1964.0
1956.0
1934.0
1925.0
1932.0
1930.0
1907.0
1890.0
1889.0
1884.0
1856.0
1819.0
1784.0
1763.0
1740.0
1686.0
1660.0
1621.0
1625.0
1573.0
1541.0
1507.0
1469.0
1449.0
1433.0
1423.0
1404.0
1410.0
1442.0
1444.0
1442.0
1430.0
1440.0
1477.0
1491.0
1507.0
1527.0
1589.0
1632.0
1657.0
1698.0
1736.0
1778.0
1836.0
1872.0
1932.0
1981.0
2055.0
2139.0
2166.0
2209.0
2248.0
2303.0
2356.0
2381.0
2423.0
2457.0
2508.0
2557.0
2585.0
2603.0
2628.0
2655.0
2673.0
2699.0
2716.0
2730.0
2788.0
2814.0
2797.0
2803.0
2788.0
2794.0
2778.0
2738.0
2725.0
2691.0
2683.0
2637.0
2581.0
2503.0
2437.0
2368.0
2287.0
2223.0
2137.0
2050.0
1994.0
1901.0
1811.0
1714.0
1628.0
1550.0
1466.0
1390.0
1309.0
1265.0
1235.0
1167.0
1102.0
1071.0
1038.0
1026.0
1011.0
994.0
993.0
1030.0
1048.0
1056.0
1053.0
1090.0
1129.0
1149.0
1141.0
1199.0
1213.0
1283.0
1307.0
1337.0
1376.0
1387.0
1437.0
1454.0
1504.0
1527.0
1579.0
1641.0
1669.0
1682.0
1686.0
1707.0
1744.0
1747.0
1766.0
1780.0
1819.0
1845.0
1846.0
1839.0
1848.0
1847.0
1855.0
1863.0
1862.0
1847.0
1892.0
1903.0
1899.0
1890.0
1877.0
1883.0
1900.0
1875.0
1874.0
1870.0
1887.0
1891.0
1873.0
1863.0
1863.0
1856.0
1847.0
1861.0
1847.0
1851.0
1905.0
1892.0
1890.0
1870.0
1852.0
1863.0
1853.0
1855.0
1853.0
1849.0
1869.0
1861.0
1841.0
1832.0
1836.0
1822.0
1839.0
1848.0
1842.0
1857.0
1896.0
1890.0
1885.0
1872.0
1874.0
1877.0
1863.0
1867.0
1858.0
1885.0
1896.0
1873.0
1860.0
1854.0
1850.0
1837.0
1850.0
1843.0
1843.0
1869.0
1876.0
1867.0
1854.0
1834.0
1857.0
1848.0
1823.0
1821.0
1832.0
1845.0
1837.0
1823.0
1834.0
1810.0
1790.0
1799.0
1790.0
1786.0
1802.0
1834.0
1818.0
1813.0
1794.0
1801.0
1808.0
1805.0
1798.0
1799.0
1819.0
1831.0
1819.0
1813.0
1814.0
1817.0
1829.0
1830.0
1834.0
1836.0
1853.0
1892.0
1883.0
1879.0
1864.0
1857.0
1880.0
1861.0
1856.0
1857.0
1883.0
1881.0
1866.0
1858.0
1857.0
1855.0
1856.0
1864.0
1866.0
1871.0
1906.0
1916.0
1904.0
1894.0
1897.0
1902.0
1908.0
1889.0
1891.0
1918.0
1918.0
1911.0
1883.0
1885.0
1874.0
1875.0
1877.0
1867.0
1865.0
1872.0
1891.0
1885.0
1860.0
1849.0
1852.0
1846.0
1832.0
1829.0
1817.0
1846.0
1841.0
1826.0
1813.0
1810.0
1807.0
1807.0
1820.0
1814.0
1809.0
1838.0
1842.0
1828.0
1815.0
1799.0
1799.0
1811.0
1792.0
1780.0
1784.0
1801.0
1800.0
1775.0
1767.0
1761.0
1759.0
1760.0
1774.0
1770.0
1761.0
1791.0
1795.0
1794.0
1779.0
1785.0
1793.0
1789.0
1781.0
1785.0
1808.0
1830.0
1828.0
1818.0
1819.0
1823.0
1836.0
1847.0
1852.0
1856.0
1887.0
1911.0
1899.0
1901.0
1885.0
1886.0
1898.0
1890.0
1884.0
1871.0
1912.0
1900.0
1877.0
1862.0
1865.0
1866.0
1865.0
1870.0
1866.0
1866.0
1900.0
1901.0
1896.0
1888.0
1884.0
1890.0
1884.0
1862.0
1872.0
1896.0
1893.0
1892.0
1869.0
1867.0
1866.0
1872.0
1867.0
1872.0
1867.0
1884.0
1905.0
1904.0
1896.0
1877.0
1881.0
1885.0
1866.0
1871.0
1855.0
1879.0
1889.0
1866.0
1850.0
1845.0
1841.0
1835.0
1835.0
1825.0
1827.0
1864.0
1864.0
1853.0
1833.0
1834.0
1836.0
1826.0
1820.0
1803.0
1813.0
1832.0
1828.0
1802.0
1791.0
1800.0
1806.0
1797.0
1787.0
1792.0
1808.0
1847.0
1832.0
1829.0
1808.0
1818.0
1813.0
1814.0
1812.0
1828.0
1834.0
1859.0
1832.0
1833.0
1819.0
1832.0
1836.0
1843.0
1849.0
1850.0
1874.0
1894.0
1894.0
1881.0
1869.0
1886.0
1884.0
1867.0
1882.0
1871.0
1899.0
1895.0
1882.0
1872.0
1885.0
1862.0
1862.0
1861.0
1871.0
1870.0
1908.0
1895.0
1885.0
1854.0
1850.0
1869.0
1858.0
1856.0
1849.0
1851.0
1870.0
1845.0
1842.0
1834.0
1816.0
1841.0
1827.0
1839.0
1833.0
1844.0
1869.0
1863.0
1859.0
1848.0
1847.0
1857.0
1832.0
1846.0
1848.0
1861.0
1887.0
1858.0
1849.0
1860.0
1853.0
1851.0
1857.0
1860.0
1869.0
1883.0
1895.0
1883.0
1879.0
1872.0
1881.0
1879.0
1888.0
1863.0
1876.0
1899.0
1889.0
1855.0
1870.0
1860.0
1858.0
1856.0
1852.0
1860.0
1864.0
1894.0
1874.0
1864.0
1849.0
1857.0
1855.0
1840.0
1843.0
1835.0
1847.0
1853.0
1838.0
1820.0
1815.0
1814.0
1814.0
1817.0
1814.0
1813.0
1841.0
1860.0
1843.0
1844.0
1819.0
1829.0
1839.0
1826.0
1818.0
1827.0
1842.0
1857.0
1826.0
1824.0
1816.0
1816.0
1826.0
1827.0
1828.0
1833.0
1875.0
1882.0
1855.0
1845.0
1853.0
1871.0
1859.0
1849.0
1843.0
1872.0
1885.0
1872.0
1850.0
1865.0
1839.0
1851.0
1860.0
1858.0
1859.0
1878.0
1912.0
1900.0
1873.0
1867.0
1871.0
1892.0
1877.0
1878.0
1874.0
1889.0
1891.0
1884.0
1870.0
1871.0
1876.0
1875.0
1883.0
1880.0
1878.0
1916.0
1920.0
1913.0
1905.0
1887.0
1895.0
1889.0
1871.0
1883.0
1894.0
1907.0
1894.0
1873.0
1869.0
1863.0
1858.0
1863.0
1872.0
1876.0
1878.0
1910.0
1903.0
1894.0
1871.0
1887.0
1892.0
1882.0
1878.0
1880.0
1891.0
1899.0
1871.0
1880.0
1871.0
1866.0
1876.0
1872.0
1863.0
1869.0
1892.0
1903.0
1892.0
1885.0
1864.0
1877.0
1887.0
1870.0
1849.0
1864.0
1891.0
1876.0
1859.0
1847.0
1848.0
1836.0
1836.0
1841.0
1845.0
1858.0
1883.0
1878.0
1860.0
1856.0
1845.0
1865.0
1837.0
1831.0
1854.0
1862.0
1875.0
1849.0
1840.0
1832.0
1828.0
1828.0
1834.0
1832.0
1828.0
1864.0
1860.0
1867.0
1853.0
1841.0
1861.0
1864.0
1839.0
1844.0
1845.0
1876.0
1871.0
1855.0
1855.0
1850.0
1844.0
1838.0
1854.0
1860.0
1852.0
1888.0
1904.0
1891.0
1869.0
1873.0
1884.0
1878.0
1873.0
1880.0
1896.0
1902.0
1895.0
1886.0
1878.0
1881.0
1887.0
1891.0
1882.0
1887.0
1902.0
1921.0
1925.0
1901.0
1892.0
1890.0
1900.0
1879.0
1878.0
1875.0
1900.0
1901.0
1873.0
1872.0
1867.0
1870.0
1855.0
1865.0
1873.0
1852.0
1900.0
1887.0
1881.0
1868.0
1859.0
1878.0
1875.0
1861.0
1852.0
1853.0
1882.0
1872.0
1851.0
1855.0
1846.0
1839.0
1840.0
1847.0
1855.0
1856.0
1888.0
1883.0
1866.0
1864.0
1858.0
1856.0
1852.0
1853.0
1851.0
1872.0
1874.0
1860.0
1848.0
1844.0
1843.0
1835.0
1846.0
1848.0
1855.0
1875.0
1887.0
1877.0
1873.0
1865.0
1868.0
1862.0
1853.0
1855.0
1855.0
1887.0
1889.0
1867.0
1855.0
1852.0
1841.0
1840.0
1855.0
1857.0
1862.0
1895.0
1886.0
1876.0
1867.0
1859.0
1878.0
1874.0
1857.0
1865.0
1870.0
1884.0
1874.0
1856.0
1852.0
1852.0
1848.0
1853.0
1849.0
1853.0
1860.0
1892.0
1882.0
1864.0
1849.0
1861.0
1861.0
1856.0
1851.0
1839.0
1876.0
1880.0
1867.0
1851.0
1839.0
1846.0
1839.0
1856.0
1853.0
1855.0
1878.0
1893.0
1881.0
1881.0
1870.0
1880.0
1875.0
1862.0
1862.0
1871.0
1891.0
1886.0
1871.0
1864.0
1868.0
1860.0
1862.0
1854.0
1867.0
1878.0
1900.0
1899.0
1896.0
1880.0
1879.0
1887.0
1881.0
1866.0
1869.0
1884.0
1891.0
1874.0
1864.0
1864.0
1849.0
1847.0
1858.0
1855.0
1863.0
1881.0
1893.0
1881.0
1867.0
1856.0
1868.0
1872.0
1856.0
1849.0
1856.0
1878.0
1870.0
1860.0
1843.0
1845.0
1844.0
1847.0
1854.0
1851.0
1843.0
1883.0
1889.0
1872.0
1856.0
1854.0
1869.0
1863.0
1836.0
1855.0
1863.0
1876.0
1851.0
1847.0
1844.0
1838.0
1840.0
1852.0
1855.0
1858.0
1876.0
1894.0
1892.0
1876.0
1856.0
1875.0
1868.0
1870.0
1855.0
1873.0
1895.0
1891.0
1878.0
1879.0
1867.0
1872.0
1871.0
1872.0
1872.0
1871.0
1904.0
1915.0
1904.0
1894.0
1890.0
1891.0
1896.0
1879.0
1889.0
1892.0
1918.0
1892.0
1890.0
1873.0
1868.0
1870.0
1863.0
1878.0
1872.0
1872.0
1904.0
1898.0
1874.0
1863.0
1867.0
1872.0
1852.0
1853.0
1853.0
1856.0
1872.0
1853.0
1828.0
1829.0
1828.0
1827.0
1833.0
1823.0
1830.0
1858.0
1870.0
1858.0
1851.0
1836.0
1839.0
1849.0
1833.0
1833.0
1831.0
1862.0
1859.0
1844.0
1843.0
1830.0
1832.0
1832.0
1842.0
1844.0
1852.0
1888.0
1872.0
1865.0
1859.0
1853.0
1859.0
1860.0
1847.0
1858.0
1866.0
1885.0
1862.0
1857.0
1848.0
1856.0
1855.0
1854.0
1863.0
1852.0
1875.0
1893.0
1887.0
1882.0
1866.0
1877.0
1882.0
1853.0
1862.0
1862.0
1874.0
1889.0
1865.0
1862.0
1839.0
1848.0
1856.0
1855.0
1858.0
1854.0
1897.0
1890.0
1888.0
1858.0
1861.0
1867.0
1867.0
1857.0
1855.0
1859.0
1888.0
1869.0
1858.0
1844.0
1838.0
1835.0
1840.0
1844.0
1852.0
1850.0
1882.0
1875.0
1869.0
1855.0
1858.0
1859.0
1845.0
1846.0
1859.0
1876.0
1874.0
1868.0
1848.0
1847.0
1852.0
1846.0
1848.0
1855.0
1843.0
1882.0
1885.0
1876.0
1869.0
1864.0
1868.0
1866.0
1850.0
1868.0
1856.0
1877.0
1862.0
1848.0
1840.0
1843.0
1829.0
1835.0
1844.0
1845.0
1848.0
1871.0
1876.0
1861.0
1855.0
1848.0
1852.0
1847.0
1842.0
1845.0
1858.0
1863.0
1846.0
1836.0
1834.0
1832.0
1823.0
1835.0
1831.0
1828.0
1859.0
1889.0
1861.0
1853.0
1835.0
1858.0
1855.0
1843.0
1848.0
1838.0
1869.0
1866.0
1844.0
1835.0
1834.0
1841.0
1837.0
1845.0
1849.0
1839.0
1875.0
1877.0
1867.0
1852.0
1862.0
1863.0
1859.0
1847.0
1839.0
1855.0
1878.0
1864.0
1853.0
1846.0
1844.0
1842.0
1855.0
1852.0
1854.0
1878.0
1893.0
1876.0
1883.0
1855.0
1869.0
1882.0
1861.0
1862.0
1859.0
1879.0
1884.0
1870.0
1865.0
1861.0
1866.0
1860.0
1860.0
1873.0
1863.0
1903.0
1899.0
1894.0
1881.0
1875.0
1876.0
1878.0
1858.0
1873.0
1863.0
1891.0
1885.0
1860.0
1855.0
1856.0
1853.0
1856.0
1856.0
1856.0
1860.0
1891.0
1886.0
1871.0
1851.0
1860.0
1864.0
1851.0
1850.0
1835.0
1864.0
1882.0
1856.0
1853.0
1832.0
1837.0
1839.0
1839.0
1832.0
1841.0
1862.0
1871.0
1861.0
1857.0
1848.0
1856.0
1858.0
1847.0
1840.0
1852.0
1862.0
1865.0
1845.0
1844.0
1842.0
1837.0
1830.0
1846.0
1841.0
1850.0
1875.0
1870.0
1871.0
1847.0
1851.0
1857.0
1847.0
1845.0
1838.0
1859.0
1872.0
1865.0
1847.0
1840.0
1843.0
1820.0
1855.0
1848.0
1841.0
1851.0
1883.0
1880.0
1870.0
1855.0
1859.0
1858.0
1857.0
1857.0
1858.0
1874.0
1890.0
1852.0
1854.0
1846.0
1841.0
1839.0
1851.0
1834.0
1843.0
1871.0
1880.0
1874.0
1851.0
1859.0
1868.0
1860.0
1854.0
1853.0
1859.0
1883.0
1873.0
1854.0
1847.0
1847.0
1838.0
1853.0
1855.0
1858.0
1865.0
1894.0
1891.0
1874.0
1865.0
1870.0
1863.0
1866.0
1865.0
1849.0
1874.0
1881.0
1866.0
1851.0
1850.0
1844.0
1837.0
1850.0
1844.0
1845.0
1874.0
1891.0
1877.0
1876.0
1866.0
1871.0
1875.0
1856.0
1863.0
1861.0
1877.0
1879.0
1860.0
1853.0
1851.0
1853.0
1848.0
1859.0
1870.0
1858.0
1893.0
1899.0
1888.0
1875.0
1875.0
1873.0
1883.0
1869.0
1860.0
1879.0
1892.0
1882.0
1859.0
1851.0
1853.0
1855.0
1853.0
1855.0
1855.0
1867.0
1900.0
1884.0
1879.0
1860.0
1876.0
1875.0
1867.0
1867.0
1869.0
1888.0
1885.0
1861.0
1850.0
1851.0
1847.0
1856.0
1864.0
1867.0
1855.0
1892.0
1888.0
1887.0
1864.0
1880.0
1877.0
1884.0
1858.0
1855.0
1883.0
1896.0
1882.0
1865.0
1849.0
1847.0
1852.0
1861.0
1864.0
1873.0
1878.0
1895.0
1894.0
1869.0
1871.0
1880.0
1873.0
1868.0
1878.0
1873.0
1881.0
1887.0
1865.0
1852.0
1869.0
1856.0
1853.0
1858.0
1864.0
1861.0
1888.0
1897.0
1883.0
1867.0
1857.0
1872.0
1877.0
1856.0
1860.0
1859.0
1890.0
1876.0
1863.0
1847.0
1848.0
1844.0
1848.0
1856.0
1854.0
1862.0
1882.0
1883.0
1878.0
1867.0
1869.0
1873.0
1863.0
1847.0
1862.0
1871.0
1882.0
1868.0
1854.0
1858.0
1843.0
1846.0
1846.0
1854.0
1851.0
1872.0
1894.0
1877.0
1879.0
1856.0
1872.0
1878.0
1862.0
1859.0
1855.0
1878.0
1881.0
1864.0
1861.0
1853.0
1852.0
1855.0
1853.0
1858.0
1857.0
1900.0
1887.0
1883.0
1873.0
1872.0
1879.0
1874.0
1862.0
1874.0
1875.0
1890.0
1876.0
1865.0
1856.0
1850.0
1852.0
1859.0
1866.0
1861.0
1867.0
1900.0
1877.0
1872.0
1865.0
1864.0
1865.0
1851.0
1851.0
1845.0
1861.0
1876.0
1855.0
1843.0
1829.0
1849.0
1833.0
1846.0
1839.0
1834.0
1880.0
1876.0
1866.0
1852.0
1851.0
1853.0
1879.0
1843.0
1831.0
1839.0
1882.0
1866.0
1852.0
1848.0
1835.0
1844.0
1833.0
1844.0
1854.0
1861.0
1885.0
1883.0
1881.0
1859.0
1854.0
1867.0
1864.0
1850.0
1868.0
1874.0
1881.0
1862.0
1848.0
1840.0
1849.0
1833.0
1857.0
1845.0
1846.0
1855.0
1875.0
1876.0
1871.0
1847.0
1860.0
1873.0
1844.0
1858.0
1854.0
1884.0
1883.0
1864.0
1851.0
1852.0
1856.0
1849.0
1861.0
1860.0
1870.0
1899.0
1893.0
1893.0
1869.0
1866.0
1879.0
1876.0
1859.0
1853.0
1871.0
1893.0
1873.0
1866.0
1864.0
1848.0
1836.0
1854.0
1854.0
1847.0
1864.0
1894.0
1892.0
1867.0
1860.0
1864.0
1859.0
1851.0
1850.0
1852.0
1879.0
1880.0
1862.0
1850.0
1847.0
1846.0
1847.0
1860.0
1847.0
1848.0
1892.0
1884.0
1882.0
1860.0
1862.0
1867.0
1873.0
1847.0
1857.0
1872.0
1884.0
1866.0
1874.0
1839.0
1858.0
1843.0
1854.0
1857.0
1844.0
1867.0
1894.0
1876.0
1879.0
1859.0
1870.0
1878.0
1862.0
1857.0
1865.0
1877.0
1883.0
1871.0
1861.0
1854.0
1846.0
1855.0
1854.0
1862.0
1863.0
1882.0
1899.0
1885.0
1877.0
1872.0
1885.0
1880.0
1855.0
1863.0
1861.0
1878.0
1889.0
1864.0
1854.0
1852.0
1845.0
1847.0
1858.0
1844.0
1847.0
1890.0
1884.0
1882.0
1855.0
1869.0
1867.0
1862.0
1847.0
1851.0
1864.0
1870.0
1866.0
1846.0
1846.0
1841.0
1845.0
1839.0
1849.0
1862.0
1858.0
1886.0
1885.0
1871.0
1860.0
1863.0
1870.0
1852.0
1850.0
1864.0
1879.0
1884.0
1875.0
1850.0
1858.0
1849.0
1843.0
1842.0
1861.0
1851.0
1887.0
1892.0
1879.0
1869.0
1850.0
1872.0
1869.0
1858.0
1864.0
1868.0
1888.0
1870.0
1856.0
1848.0
1850.0
1848.0
1846.0
1857.0
1853.0
1856.0
1889.0
1874.0
1862.0
1848.0
1860.0
1859.0
1856.0
1853.0
1847.0
1868.0
1883.0
1857.0
1849.0
1842.0
1848.0
1841.0
1856.0
1850.0
1837.0
1883.0
1885.0
1879.0
1861.0
1859.0
1870.0
1867.0
1859.0
1846.0
1856.0
1873.0
1878.0
1855.0
1839.0
1853.0
1848.0
1844.0
1847.0
1852.0
1851.0
1892.0
1890.0
1875.0
1854.0
1860.0
1878.0
1868.0
1855.0
1860.0
1870.0
1884.0
1863.0
1849.0
1856.0
1844.0
1846.0
1852.0
1848.0
1853.0
1872.0
1889.0
1879.0
1873.0
1860.0
1861.0
1868.0
1852.0
1845.0
1855.0
1875.0
1862.0
1860.0
1846.0
1844.0
1848.0
1839.0
1851.0
1847.0
1849.0
1881.0
1889.0
1876.0
1868.0
1860.0
1872.0
1876.0
1862.0
1853.0
1868.0
1890.0
1861.0
1852.0
1840.0
1845.0
1858.0
1840.0
1856.0
1866.0
1870.0
1894.0
1894.0
1874.0
1870.0
1860.0
1876.0
1853.0
1864.0
1869.0
1880.0
1886.0
1860.0
1858.0
1855.0
1856.0
1858.0
1847.0
1873.0
1847.0
1890.0
1886.0
1887.0
1864.0
1868.0
1875.0
1871.0
1856.0
1861.0
1859.0
1875.0
1875.0
1862.0
1853.0
1851.0
1843.0
1848.0
1848.0
1847.0
1857.0
1886.0
1884.0
1866.0
1849.0
1862.0
1853.0
1858.0
1854.0
1856.0
1876.0
1871.0
1859.0
1852.0
1841.0
1845.0
1847.0
1849.0
1855.0
1852.0
1878.0
1891.0
1881.0
1875.0
1858.0
1867.0
1873.0
1855.0
1858.0
1834.0
1873.0
1883.0
1853.0
1842.0
1847.0
1845.0
1837.0
1858.0
1859.0
1856.0
1900.0
1894.0
1880.0
1865.0
1865.0
1871.0
1874.0
1857.0
1855.0
1866.0
1887.0
1872.0
1855.0
1849.0
1850.0
1860.0
1850.0
1862.0
1852.0
1879.0
1900.0
1882.0
1882.0
1876.0
1880.0
1875.0
1863.0
1860.0
1858.0
1890.0
1881.0
1871.0
1851.0
1861.0
1842.0
1848.0
1847.0
1859.0
1860.0
1878.0
1872.0
1878.0
1876.0
1860.0
1871.0
1873.0
1850.0
1847.0
1859.0
1877.0
1881.0
1859.0
1848.0
1849.0
1839.0
1854.0
1845.0
1857.0
1861.0
1892.0
1881.0
1876.0
1864.0
1867.0
1866.0
1862.0
1865.0
1861.0
1872.0
1879.0
1864.0
1855.0
1855.0
1849.0
1842.0
1856.0
1854.0
1855.0
1875.0
1886.0
1880.0
1877.0
1856.0
1869.0
1877.0
1858.0
1859.0
1853.0
1881.0
1885.0
1869.0
1856.0
1843.0
1851.0
1855.0
1852.0
1850.0
1855.0
1895.0
1887.0
1887.0
1876.0
1864.0
1870.0
1874.0
1858.0
1864.0
1883.0
1875.0
1870.0
1855.0
1850.0
1849.0
1851.0
1841.0
1851.0
1863.0
1874.0
1896.0
1892.0
1875.0
1863.0
1865.0
1874.0
1857.0
1862.0
1858.0
1874.0
1879.0
1876.0
1847.0
1855.0
1846.0
1846.0
1857.0
1855.0
1851.0
1890.0
1891.0
1887.0
1863.0
1860.0
1875.0
1865.0
1859.0
1868.0
1868.0
1890.0
1863.0
1853.0
1855.0
1843.0
1848.0
1844.0
1854.0
1844.0
1847.0
1900.0
1896.0
1863.0
1855.0
1863.0
1864.0
1864.0
1856.0
1854.0
1867.0
1871.0
1871.0
1849.0
1842.0
1839.0
1833.0
1864.0
1857.0
1857.0
1879.0
1892.0
1891.0
1880.0
1866.0
1875.0
1880.0
1865.0
1864.0
1849.0
1890.0
1886.0
1877.0
1846.0
1858.0
1847.0
1845.0
1859.0
1853.0
1863.0
1893.0
1894.0
1881.0
1863.0
1876.0
1863.0
1863.0
1853.0
1849.0
1864.0
1879.0
1873.0
1864.0
1847.0
1855.0
1840.0
1844.0
1849.0
1847.0
1865.0
1886.0
1879.0
1876.0
1849.0
1864.0
1866.0
1846.0
1850.0
1852.0
1874.0
1880.0
1861.0
1856.0
1846.0
1841.0
1840.0
1858.0
1842.0
1852.0
1891.0
1887.0
1880.0
1870.0
1847.0
1870.0
1868.0
1848.0
1853.0
1855.0
1886.0
1868.0
1858.0
1847.0
1850.0
1858.0
1846.0
1852.0
1849.0
1863.0
1890.0
1885.0
1871.0
1857.0
1867.0
1875.0
1858.0
1849.0
1871.0
1878.0
1883.0
1866.0
1861.0
1854.0
1845.0
1851.0
1861.0
1844.0
1862.0
1883.0
1896.0
1872.0
1875.0
1854.0
1868.0
1873.0
1848.0
1864.0
1872.0
1888.0
1878.0
1856.0
1846.0
1852.0
1836.0
1847.0
1856.0
1853.0
1860.0
1888.0
1883.0
1869.0
1858.0
1865.0
1876.0
1871.0
1855.0
1860.0
1863.0
1888.0
1872.0
1860.0
1845.0
1840.0
1847.0
1850.0
1851.0
1860.0
1865.0
1879.0
1877.0
1869.0
1858.0
1868.0
1865.0
1864.0
1844.0
1861.0
1884.0
1876.0
1865.0
1845.0
1850.0
1844.0
1853.0
1856.0
1852.0
1842.0
1879.0
1885.0
1885.0
1872.0
1853.0
1872.0
1873.0
1857.0
1856.0
1876.0
1885.0
1863.0
1859.0
1856.0
1841.0
1840.0
1844.0
1861.0
1858.0
1864.0
1886.0
1882.0
1875.0
1864.0
1868.0
1876.0
1852.0
1839.0
1867.0
1864.0
1881.0
1870.0
1854.0
1849.0
1830.0
1846.0
1841.0
1853.0
1851.0
1870.0
1884.0
1883.0
1865.0
1859.0
1866.0
1861.0
1855.0
1861.0
1848.0
1877.0
1872.0
1851.0
1854.0
1846.0
1852.0
1857.0
1853.0
1866.0
1853.0
1894.0
1895.0
1877.0
1866.0
1862.0
1881.0
1863.0
1854.0
1872.0
1875.0
1884.0
1870.0
1858.0
1859.0
1853.0
1842.0
1855.0
1859.0
1868.0
1869.0
1895.0
1886.0
1867.0
1849.0
1878.0
1875.0
1854.0
1859.0
1847.0
1878.0
1872.0
1866.0
1855.0
1853.0
1846.0
1853.0
1845.0
1861.0
1856.0
1889.0
1888.0
1887.0
1875.0
1864.0
1874.0
1869.0
1858.0
1866.0
1872.0
1887.0
1870.0
1860.0
1854.0
1852.0
1846.0
1854.0
1858.0
1856.0
1870.0
1889.0
1888.0
1886.0
1857.0
1861.0
1866.0
1864.0
1865.0
1870.0
1868.0
1879.0
1874.0
1853.0
1860.0
1846.0
1840.0
1857.0
1865.0
1845.0
1882.0
1887.0
1887.0
1868.0
1861.0
1875.0
1861.0
1860.0
1864.0
1864.0
1888.0
1878.0
1862.0
1851.0
1846.0
1851.0
1854.0
1851.0
1859.0
1843.0
1891.0
1886.0
1866.0
1863.0
1854.0
1869.0
1869.0
1865.0
1842.0
1869.0
1883.0
1875.0
1851.0
1836.0
1846.0
1835.0
1851.0
1847.0
1845.0
1861.0
1887.0
1880.0
1870.0
1849.0
1868.0
1872.0
1858.0
1860.0
1855.0
1893.0
1880.0
1861.0
1854.0
1843.0
1845.0
1845.0
1858.0
1859.0
1857.0
1882.0
1889.0
1886.0
1879.0
1873.0
1888.0
1874.0
1864.0
1857.0
1871.0
1889.0
1866.0
1874.0
1855.0
1853.0
1847.0
1850.0
1857.0
1853.0
1859.0
1890.0
1898.0
1876.0
1859.0
1860.0
1869.0
1872.0
1854.0
1857.0
1871.0
1874.0
1864.0
1852.0
1840.0
1847.0
1850.0
1851.0
1852.0
1844.0
1879.0
1877.0
1878.0
1875.0
1847.0
1866.0
1864.0
1850.0
1849.0
1854.0
1878.0
1876.0
1847.0
1841.0
1835.0
1848.0
1848.0
1843.0
1856.0
1853.0
1889.0
1885.0
1865.0
1857.0
1859.0
1868.0
1864.0
1860.0
1855.0
1875.0
1885.0
1876.0
1861.0
1841.0
1858.0
1854.0
1850.0
1854.0
1848.0
1883.0
1888.0
1881.0
1876.0
1856.0
1860.0
1866.0
1846.0
1861.0
1857.0
1867.0
1872.0
1856.0
1850.0
1841.0
1837.0
1837.0
1847.0
1848.0
1851.0
1884.0
1880.0
1892.0
1865.0
1860.0
1858.0
1867.0
1860.0
1873.0
1853.0
1892.0
1863.0
1866.0
1856.0
1857.0
1858.0
1860.0
1862.0
1860.0
1872.0
1899.0
1892.0
1883.0
1863.0
1879.0
1876.0
1857.0
1867.0
1856.0
1871.0
1875.0
1870.0
1856.0
1851.0
1839.0
1843.0
1844.0
1859.0
1844.0
1887.0
1881.0
1875.0
1864.0
1850.0
1867.0
1858.0
1829.0
1854.0
1858.0
1873.0
1864.0
1846.0
1837.0
1840.0
1848.0
1850.0
1840.0
1851.0
1860.0
1891.0
1878.0
1890.0
1856.0
1867.0
1872.0
1863.0
1857.0
1857.0
1879.0
1880.0
1869.0
1863.0
1857.0
1844.0
1842.0
1860.0
1850.0
1862.0
1877.0
1885.0
1886.0
1873.0
1869.0
1881.0
1874.0
1856.0
1859.0
1852.0
1884.0
1877.0
1873.0
1855.0
1847.0
1845.0
1846.0
1860.0
1852.0
1872.0
1896.0
1885.0
1888.0
1867.0
1870.0
1867.0
1872.0
1858.0
1855.0
1876.0
1890.0
1863.0
1858.0
1844.0
1862.0
1848.0
1851.0
1853.0
1856.0
1861.0
1893.0
1885.0
1877.0
1867.0
1876.0
1871.0
1851.0
1852.0
1866.0
1884.0
1883.0
1858.0
1854.0
1841.0
1844.0
1847.0
1850.0
1847.0
1839.0
1889.0
1888.0
1887.0
1870.0
1855.0
1873.0
1871.0
1856.0
1857.0
1847.0
1883.0
1859.0
1864.0
1856.0
1839.0
1836.0
1839.0
1851.0
1854.0
1864.0
1891.0
1870.0
1872.0
1856.0
1868.0
1866.0
1865.0
1847.0
1857.0
1866.0
1881.0
1862.0
1848.0
1850.0
1849.0
1855.0
1851.0
1850.0
1859.0
1892.0
1890.0
1892.0
1876.0
1859.0
1880.0
1875.0
1853.0
1860.0
1852.0
1888.0
1882.0
1867.0
1850.0
1854.0
1860.0
1858.0
1850.0
1855.0
1861.0
1906.0
1883.0
1880.0
1867.0
1878.0
1872.0
1862.0
1847.0
1867.0
1877.0
1880.0
1872.0
1862.0
1851.0
1847.0
1842.0
1852.0
1851.0
1860.0
1855.0
1898.0
1885.0
1878.0
1849.0
1875.0
1882.0
1862.0
1841.0
1867.0
1867.0
1881.0
1853.0
1857.0
1851.0
1850.0
1857.0
1841.0
1853.0
1839.0
1886.0
1894.0
1875.0
1862.0
1861.0
1868.0
1868.0
1860.0
1861.0
1876.0
1888.0
1869.0
1864.0
1846.0
1846.0
1851.0
1850.0
1859.0
1866.0
1856.0
1897.0
1883.0
1879.0
1860.0
1862.0
1868.0
1857.0
1866.0
1865.0
1863.0
1881.0
1865.0
1848.0
1853.0
1833.0
1841.0
1840.0
1855.0
1835.0
1875.0
1889.0
1871.0
1872.0
1859.0
1868.0
1870.0
1842.0
1866.0
1852.0
1884.0
1871.0
1857.0
1847.0
1858.0
1858.0
1851.0
1863.0
1857.0
1868.0
1897.0
1893.0
1891.0
1869.0
1865.0
1875.0
1863.0
1868.0
1859.0
1882.0
1891.0
1869.0
1865.0
1856.0
1850.0
1850.0
1848.0
1860.0
1852.0
1868.0
1885.0
1881.0
1863.0
1860.0
1864.0
1867.0
1845.0
1847.0
1841.0
1871.0
1863.0
1861.0
1844.0
1840.0
1841.0
1838.0
1839.0
1852.0
1852.0
1890.0
1892.0
1864.0
1863.0
1862.0
1871.0
1853.0
1861.0
1861.0
1872.0
1892.0
1882.0
1854.0
1853.0
1857.0
1854.0
1853.0
1858.0
1860.0
1865.0
1895.0
1897.0
1880.0
1859.0
1869.0
1882.0
1860.0
1875.0
1861.0
1883.0
1879.0
1859.0
1854.0
1842.0
1852.0
1841.0
1854.0
1855.0
1847.0
1880.0
1880.0
1886.0
1872.0
1872.0
1877.0
1867.0
1845.0
1866.0
1860.0
1884.0
1875.0
1855.0
1850.0
1845.0
1841.0
1847.0
1847.0
1859.0
1868.0
1902.0
1886.0
1877.0
1859.0
1868.0
1865.0
1853.0
1866.0
1856.0
1871.0
1881.0
1865.0
1847.0
1850.0
1840.0
1844.0
1844.0
1855.0
1861.0
1864.0
1887.0
1877.0
1876.0
1853.0
1854.0
1869.0
1852.0
1854.0
1845.0
1877.0
1878.0
1856.0
1846.0
1854.0
1839.0
1838.0
1852.0
1848.0
1841.0
1880.0
1884.0
1885.0
1862.0
1856.0
1875.0
1859.0
1856.0
1859.0
1855.0
1883.0
1882.0
1860.0
1854.0
1846.0
1845.0
1844.0
1855.0
1849.0
1874.0
1890.0
1886.0
1870.0
1858.0
1856.0
1870.0
1850.0
1861.0
1852.0
1869.0
1882.0
1853.0
1856.0
1844.0
1860.0
1847.0
1858.0
1845.0
1855.0
1882.0
1891.0
1887.0
1867.0
1861.0
1873.0
1870.0
1862.0
1855.0
1864.0
1894.0
1886.0
1852.0
1851.0
1846.0
1839.0
1845.0
1864.0
1849.0
1855.0
1892.0
1881.0
1873.0
1860.0
1876.0
1868.0
1859.0
1856.0
1855.0
1875.0
1890.0
1880.0
1864.0
1848.0
1848.0
1837.0
1847.0
1862.0
1855.0
1888.0
1887.0
1880.0
1872.0
1855.0
1863.0
1873.0
1861.0
1864.0
1860.0
1880.0
1876.0
1859.0
1848.0
1840.0
1846.0
1849.0
1849.0
1848.0
1849.0
1888.0
1880.0
1877.0
1861.0
1860.0
1870.0
1863.0
1853.0
1850.0
1871.0
1888.0
1870.0
1856.0
1843.0
1846.0
1839.0
1856.0
1854.0
1856.0
1868.0
1896.0
1882.0
1875.0
1864.0
1875.0
1874.0
1854.0
1852.0
1871.0
1871.0
1881.0
1861.0
1856.0
1845.0
1850.0
1847.0
1852.0
1852.0
1847.0
1886.0
1894.0
1888.0
1874.0
1862.0
1872.0
1873.0
1858.0
1863.0
1871.0
1886.0
1881.0
1861.0
1857.0
1844.0
1859.0
1848.0
1853.0
1858.0
1869.0
1892.0
1885.0
1871.0
1869.0
1862.0
1871.0
1855.0
1858.0
1865.0
1891.0
1879.0
1869.0
1853.0
1856.0
1849.0
1842.0
1849.0
1853.0
1855.0
1863.0
1892.0
1879.0
1872.0
1860.0
1889.0
1876.0
1857.0
1860.0
1857.0
1887.0
1875.0
1866.0
1847.0
1849.0
1856.0
1855.0
1853.0
1853.0
1872.0
1894.0
1884.0
1879.0
1868.0
1863.0
1878.0
1866.0
1855.0
1861.0
1865.0
1882.0
1870.0
1855.0
1854.0
1848.0
1851.0
1844.0
1858.0
1844.0
1866.0
1886.0
1892.0
1875.0
1863.0
1875.0
1878.0
1855.0
1868.0
1844.0
1880.0
1886.0
1871.0
1851.0
1847.0
1838.0
1845.0
1856.0
1855.0
1843.0
1878.0
1895.0
1880.0
1875.0
1854.0
1870.0
1874.0
1850.0
1866.0
1868.0
1890.0
1876.0
1853.0
1846.0
1855.0
1848.0
1848.0
1853.0
1853.0
1878.0
1908.0
1882.0
1879.0
1872.0
1870.0
1872.0
1865.0
1861.0
1865.0
1878.0
1888.0
1872.0
1855.0
1848.0
1856.0
1847.0
1852.0
1842.0
1848.0
1873.0
1886.0
1867.0
1871.0
1852.0
1863.0
1872.0
1856.0
1857.0
1851.0
1879.0
1869.0
1857.0
1854.0
1840.0
1855.0
1847.0
1862.0
1846.0
1847.0
1885.0
1885.0
1870.0
1855.0
1864.0
1886.0
1867.0
1858.0
1848.0
1870.0
1888.0
1865.0
1870.0
1849.0
1843.0
1854.0
1849.0
1857.0
1852.0
1870.0
1885.0
1890.0
1876.0
1860.0
1877.0
1861.0
1866.0
1864.0
1852.0
1877.0
1886.0
1862.0
1857.0
1847.0
1860.0
1851.0
1854.0
1848.0
1853.0
1887.0
1890.0
1886.0
1869.0
1860.0
1871.0
1868.0
1861.0
1854.0
1868.0
1889.0
1880.0
1854.0
1852.0
1852.0
1850.0
1849.0
1857.0
1857.0
1859.0
1899.0
1887.0
1869.0
1855.0
1868.0
1880.0
1867.0
1854.0
1845.0
1867.0
1879.0
1863.0
1853.0
1848.0
1842.0
1850.0
1852.0
1850.0
1847.0
1881.0
1884.0
1869.0
1868.0
1851.0
1870.0
1866.0
1850.0
1856.0
1855.0
1867.0
1871.0
1856.0
1839.0
1841.0
1845.0
1848.0
1853.0
1843.0
1851.0
1884.0
1876.0
1877.0
1858.0
1853.0
1872.0
1862.0
1858.0
1852.0
1866.0
1882.0
1872.0
1850.0
1856.0
1846.0
1843.0
1863.0
1846.0
1851.0
1868.0
1895.0
1881.0
1871.0
1858.0
1887.0
1879.0
1865.0
1874.0
1862.0
1874.0
1883.0
1847.0
1848.0
1851.0
1850.0
1847.0
1856.0
1860.0
1849.0
1908.0
1888.0
1887.0
1865.0
1853.0
1880.0
1876.0
1863.0
1868.0
1856.0
1879.0
1877.0
1862.0
1848.0
1852.0
1861.0
1844.0
1859.0
1856.0
1860.0
1886.0
1884.0
1878.0
1859.0
1870.0
1874.0
1874.0
1864.0
1856.0
1869.0
1879.0
1863.0
1849.0
1850.0
1848.0
1848.0
1854.0
1855.0
1850.0
1875.0
1891.0
1876.0
1872.0
1847.0
1876.0
1873.0
1860.0
1848.0
1852.0
1867.0
1881.0
1855.0
1850.0
1854.0
1840.0
1846.0
1847.0
1852.0
1847.0
1885.0
1876.0
1871.0
1861.0
1847.0
1865.0
1870.0
1858.0
1855.0
1859.0
1879.0
1872.0
1855.0
1849.0
1847.0
1836.0
1856.0
1857.0
1851.0
1865.0
1892.0
1887.0
1883.0
1861.0
1868.0
1871.0
1859.0
1855.0
1849.0
1869.0
1887.0
1864.0
1855.0
1843.0
1856.0
1855.0
1852.0
1874.0
1851.0
1890.0
1884.0
1883.0
1878.0
1852.0
1872.0
1869.0
1867.0
1857.0
1864.0
1888.0
1874.0
1878.0
1859.0
1856.0
1845.0
1854.0
1852.0
1863.0
1858.0
1901.0
1881.0
1883.0
1865.0
1864.0
1871.0
1850.0
1872.0
1857.0
1875.0
1887.0
1865.0
1856.0
1852.0
1848.0
1846.0
1849.0
1855.0
1856.0
1868.0
1881.0
1889.0
1860.0
1859.0
1865.0
1881.0
1847.0
1859.0
1852.0
1875.0
1878.0
1852.0
1841.0
1840.0
1849.0
1848.0
1865.0
1847.0
1851.0
1886.0
1887.0
1886.0
1855.0
1869.0
1882.0
1872.0
1868.0
1863.0
1871.0
1890.0
1872.0
1859.0
1853.0
1861.0
1854.0
1849.0
1847.0
1847.0
1871.0
1903.0
1894.0
1879.0
1859.0
1868.0
1874.0
1866.0
1880.0
1855.0
1879.0
1890.0
1855.0
1864.0
1863.0
1852.0
1864.0
1858.0
1867.0
1864.0
1896.0
1904.0
1898.0
1870.0
1878.0
1881.0
1888.0
1863.0
1868.0
1863.0
1895.0
1881.0
1863.0
1857.0
1855.0
1843.0
1855.0
1864.0
1868.0
1857.0
1891.0
1892.0
1877.0
1862.0
1847.0
1881.0
1851.0
1868.0
1862.0
1865.0
1879.0
1863.0
1848.0
1849.0
1847.0
1842.0
1847.0
1843.0
1845.0
1889.0
1877.0
1875.0
1869.0
1852.0
1855.0
1867.0
1848.0
1849.0
1844.0
1886.0
1871.0
1851.0
1848.0
1842.0
1850.0
1836.0
1849.0
1845.0
1853.0
1889.0
1880.0
1880.0
1864.0
1856.0
1879.0
1868.0
1861.0
1864.0
1873.0
1886.0
1870.0
1845.0
1854.0
1849.0
1849.0
1852.0
1849.0
1849.0
1870.0
1886.0
1889.0
1870.0
1848.0
1861.0
1872.0
1855.0
1851.0
1858.0
1880.0
1874.0
1865.0
1855.0
1855.0
1845.0
1854.0
1855.0
1853.0
1851.0
1894.0
1890.0
1879.0
1867.0
1860.0
1876.0
1871.0
1866.0
1850.0
1868.0
1888.0
1874.0
1859.0
1856.0
1840.0
1867.0
1859.0
1852.0
1852.0
1867.0
1904.0
1886.0
1877.0
1871.0
1865.0
1873.0
1857.0
1855.0
1855.0
1879.0
1890.0
1869.0
1864.0
1854.0
1851.0
1847.0
1870.0
1851.0
1852.0
1883.0
1890.0
1882.0
1871.0
1855.0
1888.0
1880.0
1860.0
1857.0
1864.0
1881.0
1875.0
1856.0
1859.0
1851.0
1843.0
1854.0
1852.0
1852.0
1850.0
1894.0
1877.0
1881.0
1863.0
1866.0
1871.0
1858.0
1872.0
1864.0
1864.0
1884.0
1876.0
1852.0
1849.0
1848.0
1853.0
1858.0
1854.0
1855.0
1863.0
1891.0
1881.0
1871.0
1851.0
1874.0
1869.0
1860.0
1854.0
1844.0
1883.0
1873.0
1859.0
1851.0
1851.0
1843.0
1838.0
1869.0
1859.0
1868.0
1887.0
1890.0
1886.0
1871.0
1859.0
1873.0
1880.0
1851.0
1852.0
1866.0
1887.0
1877.0
1865.0
1864.0
1849.0
1845.0
1850.0
1855.0
1864.0
1864.0
1889.0
1894.0
1884.0
1863.0
1869.0
1880.0
1864.0
1871.0
1859.0
1871.0
1895.0
1867.0
1858.0
1852.0
1856.0
1860.0
1859.0
1853.0
1853.0
1886.0
1894.0
1884.0
1881.0
1864.0
1876.0
1873.0
1855.0
1865.0
1860.0
1883.0
1876.0
1859.0
1844.0
1846.0
1844.0
1845.0
1866.0
1862.0
1858.0
1899.0
1888.0
1877.0
1864.0
1850.0
1871.0
1860.0
1866.0
1872.0
1873.0
1880.0
1865.0
1854.0
1846.0
1852.0
1856.0
1851.0
1854.0
1862.0
1870.0
1907.0
1890.0
1883.0
1852.0
1865.0
1882.0
1857.0
1860.0
1860.0
1877.0
1884.0
1866.0
1860.0
1836.0
1856.0
1842.0
1855.0
1860.0
1856.0
1885.0
1885.0
1872.0
1872.0
1853.0
1881.0
1865.0
1856.0
1857.0
1851.0
1894.0
1878.0
1858.0
1847.0
1850.0
1845.0
1847.0
1870.0
1859.0
1859.0
1886.0
1869.0
1865.0
1859.0
1874.0
1873.0
1863.0
1859.0
1855.0
1870.0
1875.0
1866.0
1847.0
1856.0
1842.0
1852.0
1856.0
1857.0
1847.0
1882.0
1887.0
1873.0
1861.0
1860.0
1864.0
1881.0
1867.0
1863.0
1862.0
1883.0
1869.0
1861.0
1843.0
1858.0
1857.0
1851.0
1863.0
1853.0
1865.0
1904.0
1887.0
1886.0
1871.0
1858.0
1880.0
1869.0
1864.0
1866.0
1877.0
1896.0
1868.0
1858.0
1855.0
1852.0
1847.0
1856.0
1861.0
1862.0
1864.0
1890.0
1877.0
1868.0
1859.0
1872.0
1870.0
1868.0
1854.0
1858.0
1877.0
1885.0
1858.0
1855.0
1856.0
1841.0
1850.0
1851.0
1848.0
1847.0
1876.0
1887.0
1879.0
1862.0
1857.0
1868.0
1861.0
1855.0
1858.0
1861.0
1882.0
1866.0
1853.0
1844.0
1849.0
1852.0
1860.0
1849.0
1859.0
1868.0
1900.0
1883.0
1873.0
1861.0
1870.0
1874.0
1853.0
1855.0
1865.0
1881.0
1881.0
1860.0
1856.0
1840.0
1846.0
1849.0
1858.0
1843.0
1853.0
1879.0
1878.0
1880.0
1876.0
1860.0
1871.0
1872.0
1853.0
1854.0
1854.0
1881.0
1879.0
1865.0
1853.0
1843.0
1852.0
1855.0
1852.0
1853.0
1849.0
1900.0
1889.0
1876.0
1863.0
1856.0
1871.0
1861.0
1870.0
1851.0
1871.0
1875.0
1857.0
1848.0
1840.0
1833.0
1845.0
1847.0
1857.0
1851.0
1876.0
1893.0
1883.0
1878.0
1859.0
1865.0
1869.0
1859.0
1865.0
1853.0
1879.0
1869.0
1868.0
1852.0
1852.0
1856.0
1853.0
1858.0
1855.0
1854.0
1886.0
1888.0
1881.0
1869.0
1862.0
1864.0
1862.0
1859.0
1859.0
1867.0
1885.0
1870.0
1847.0
1846.0
1843.0
1845.0
1847.0
1855.0
1862.0
1873.0
1900.0
1887.0
1868.0
1863.0
1872.0
1880.0
1852.0
1863.0
1860.0
1877.0
1881.0
1863.0
1852.0
1846.0
1860.0
1843.0
1852.0
1856.0
1848.0
1893.0
1888.0
1887.0
1869.0
1866.0
1881.0
1880.0
1866.0
1873.0
1867.0
1882.0
1873.0
1858.0
1852.0
1854.0
1843.0
1854.0
1863.0
1859.0
1853.0
1899.0
1884.0
1878.0
1851.0
1864.0
1880.0
1855.0
1860.0
1847.0
1872.0
1877.0
1869.0
1857.0
1847.0
1843.0
1827.0
1849.0
1856.0
1853.0
1873.0
1883.0
1885.0
1878.0
1866.0
1868.0
1872.0
1856.0
1863.0
1856.0
1882.0
1874.0
1857.0
1855.0
1854.0
1857.0
1847.0
1850.0
1847.0
1862.0
1896.0
1881.0
1872.0
1876.0
1855.0
1860.0
1864.0
1855.0
1856.0
1863.0
1888.0
1866.0
1849.0
1850.0
1839.0
1837.0
1835.0
1860.0
1844.0
1872.0
1884.0
1879.0
1867.0
1855.0
1851.0
1873.0
1859.0
1864.0
1842.0
1876.0
1882.0
1856.0
1853.0
1850.0
1848.0
1841.0
1857.0
1858.0
1847.0
1879.0
1881.0
1881.0
1861.0
1872.0
1874.0
1874.0
1878.0
1867.0
1863.0
1889.0
1878.0
1857.0
1850.0
1858.0
1851.0
1853.0
1857.0
1859.0
1868.0
1904.0
1887.0
1868.0
1864.0
1870.0
1874.0
1849.0
1860.0
1853.0
1866.0
1884.0
1870.0
1863.0
1845.0
1856.0
1844.0
1843.0
1860.0
1846.0
1878.0
1885.0
1876.0
1864.0
1864.0
1867.0
1868.0
1852.0
1862.0
1857.0
1880.0
1875.0
1861.0
1860.0
1855.0
1850.0
1843.0
1863.0
1873.0
1881.0
1895.0
1893.0
1896.0
1881.0
1884.0
1906.0
1885.0
1877.0
1874.0
1887.0
1894.0
1871.0
1855.0
1852.0
1834.0
1851.0
1845.0
1846.0
1850.0
1849.0
1867.0
1872.0
1850.0
1837.0
1841.0
1836.0
1829.0
1837.0
1834.0
1851.0
1856.0
1840.0
1827.0
1819.0
1831.0
1834.0
1843.0
1846.0
1842.0
1878.0
1880.0
1880.0
1864.0
1864.0
1878.0
1876.0
1861.0
1865.0
1867.0
1890.0
1880.0
1857.0
1865.0
1854.0
1857.0
1861.0
1865.0
1870.0
1884.0
1909.0
1899.0
1893.0
1876.0
1887.0
1887.0
1876.0
1887.0
1861.0
1882.0
1893.0
1879.0
1861.0
1853.0
1858.0
1847.0
1868.0
1860.0
1860.0
1893.0
1888.0
1889.0
1871.0
1853.0
1875.0
1868.0
1862.0
1858.0
1860.0
1880.0
1874.0
1866.0
1853.0
1850.0
1847.0
1850.0
1869.0
1865.0
1855.0
1900.0
1884.0
1885.0
1862.0
1871.0
1881.0
1882.0
1858.0
1863.0
1870.0
1891.0
1867.0
1863.0
1850.0
1862.0
1846.0
1864.0
1851.0
1861.0
1879.0
1898.0
1894.0
1873.0
1861.0
1871.0
1863.0
1865.0
1864.0
1855.0
1892.0
1879.0
1853.0
1852.0
1842.0
1851.0
1840.0
1857.0
1860.0
1856.0
1890.0
1896.0
1878.0
1864.0
1860.0
1880.0
1864.0
1858.0
1854.0
1860.0
1888.0
1870.0
1845.0
1849.0
1850.0
1846.0
1848.0
1857.0
1864.0
1864.0
1893.0
1892.0
1876.0
1855.0
1864.0
1877.0
1854.0
1862.0
1847.0
1886.0
1885.0
1866.0
1857.0
1856.0
1847.0
1841.0
1857.0
1856.0
1845.0
1885.0
1887.0
1887.0
1866.0
1861.0
1868.0
1870.0
1861.0
1843.0
1861.0
1876.0
1871.0
1851.0
1854.0
1848.0
1842.0
1833.0
1844.0
1842.0
1854.0
1888.0
1885.0
1876.0
1862.0
1860.0
1869.0
1860.0
1852.0
1839.0
1864.0
1886.0
1870.0
1852.0
1838.0
1841.0
1851.0
1847.0
1857.0
1845.0
1884.0
1885.0
1888.0
1871.0
1850.0
1877.0
1871.0
1857.0
1849.0
1857.0
1885.0
1880.0
1867.0
1869.0
1853.0
1856.0
1855.0
1860.0
1858.0
1854.0
1904.0
1886.0
1883.0
1868.0
1866.0
1889.0
1867.0
1860.0
1852.0
1874.0
1882.0
1874.0
1858.0
1848.0
1861.0
1841.0
1853.0
1853.0
1850.0
1865.0
1904.0
1892.0
1879.0
1867.0
1869.0
1876.0
1855.0
1855.0
1861.0
1879.0
1885.0
1862.0
1855.0
1852.0
1851.0
1850.0
1856.0
1859.0
1861.0
1890.0
1899.0
1888.0
1862.0
1863.0
1872.0
1877.0
1858.0
1855.0
1869.0
1875.0
1874.0
1855.0
1866.0
1847.0
1844.0
1843.0
1853.0
1851.0
1861.0
1879.0
1883.0
1876.0
1854.0
1865.0
1868.0
1858.0
1856.0
1872.0
1864.0
1875.0
1862.0
1849.0
1847.0
1845.0
1848.0
1843.0
1853.0
1864.0
1880.0
1891.0
1876.0
1871.0
1848.0
1865.0
1866.0
1854.0
1849.0
1862.0
1875.0
1866.0
1856.0
1849.0
1851.0
1845.0
1857.0
1849.0
1856.0
1852.0
1885.0
1884.0
1888.0
1873.0
1860.0
1883.0
1858.0
1841.0
1857.0
1863.0
1886.0
1867.0
1843.0
1856.0
1850.0
1843.0
1851.0
1850.0
1850.0
1854.0
1890.0
1881.0
1875.0
1857.0
1854.0
1873.0
1852.0
1854.0
1861.0
1876.0
1876.0
1857.0
1855.0
1849.0
1856.0
1846.0
1847.0
1845.0
1847.0
1883.0
1883.0
1880.0
1867.0
1857.0
1872.0
1869.0
1861.0
1851.0
1865.0
1891.0
1880.0
1860.0
1850.0
1848.0
1863.0
1859.0
1859.0
1852.0
1867.0
1904.0
1893.0
1879.0
1871.0
1877.0
1883.0
1866.0
1863.0
1865.0
1877.0
1890.0
1878.0
1859.0
1857.0
1853.0
1845.0
1854.0
1852.0
1856.0
1882.0
1897.0
1883.0
1876.0
1864.0
1876.0
1876.0
1859.0
1860.0
1856.0
1875.0
1878.0
1860.0
1841.0
1849.0
1845.0
1845.0
1852.0
1852.0
1852.0
1894.0
1889.0
1868.0
1864.0
1864.0
1875.0
1862.0
1851.0
1856.0
1865.0
1876.0
1869.0
1856.0
1849.0
1844.0
1854.0
1843.0
1856.0
1860.0
1873.0
1889.0
1892.0
1877.0
1866.0
1863.0
1882.0
1869.0
1874.0
1864.0
1879.0
1889.0
1881.0
1857.0
1861.0
1849.0
1862.0
1857.0
1853.0
1868.0
1889.0
1898.0
1888.0
1877.0
1876.0
1874.0
1873.0
1864.0
1859.0
1864.0
1888.0
1874.0
1862.0
1843.0
1843.0
1859.0
1839.0
1856.0
1852.0
1859.0
1899.0
1886.0
1867.0
1871.0
1868.0
1869.0
1855.0
1857.0
1865.0
1866.0
1883.0
1864.0
1862.0
1853.0
1844.0
1839.0
1845.0
1876.0
1857.0
1883.0
1892.0
1881.0
1882.0
1865.0
1872.0
1861.0
1863.0
1864.0
1861.0
1885.0
1880.0
1847.0
1864.0
1841.0
1850.0
1855.0
1853.0
1857.0
1849.0
1902.0
1885.0
1880.0
1861.0
1864.0
1863.0
1860.0
1870.0
1866.0
1870.0
1880.0
1869.0
1852.0
1845.0
1848.0
1848.0
1855.0
1856.0
1855.0
1878.0
1895.0
1878.0
1875.0
1863.0
1876.0
1877.0
1849.0
1863.0
1847.0
1888.0
1891.0
1868.0
1858.0
1853.0
1847.0
1850.0
1859.0
1867.0
1865.0
1891.0
1896.0
1888.0
1876.0
1873.0
1884.0
1870.0
1862.0
1861.0
1860.0
1879.0
1885.0
1865.0
1856.0
1849.0
1852.0
1847.0
1858.0
1866.0
1868.0
1889.0
1889.0
1877.0
1859.0
1871.0
1883.0
1863.0
1862.0
1858.0
1881.0
1888.0
1858.0
1846.0
1849.0
1833.0
1852.0
1846.0
1845.0
1831.0
1874.0
1882.0
1863.0
1855.0
1846.0
1862.0
1869.0
1838.0
1837.0
1842.0
1868.0
1862.0
1840.0
1836.0
1833.0
1841.0
1828.0
1843.0
1844.0
1840.0
1880.0
1871.0
1864.0
1855.0
1853.0
1874.0
1872.0
1863.0
1852.0
1868.0
1888.0
1871.0
1848.0
1861.0
1852.0
1860.0
1865.0
1872.0
1868.0
1882.0
1897.0
1895.0
1885.0
1871.0
1881.0
1882.0
1880.0
1880.0
1869.0
1900.0
1883.0
1876.0
1868.0
1864.0
1855.0
1850.0
1868.0
1862.0
1863.0
1909.0
1899.0
1888.0
1886.0
1878.0
1881.0
1871.0
1864.0
1860.0
1864.0
1901.0
1873.0
1855.0
1852.0
1846.0
1852.0
1858.0
1856.0
1862.0
1867.0
1891.0
1879.0
1874.0
1857.0
1864.0
1875.0
1866.0
1856.0
1851.0
1889.0
1877.0
1872.0
1859.0
1850.0
1839.0
1849.0
1865.0
1855.0
1857.0
1889.0
1891.0
1875.0
1874.0
1868.0
1868.0
1869.0
1849.0
1865.0
1861.0
1882.0
1876.0
1864.0
1858.0
1857.0
1855.0
1853.0
1856.0
1856.0
1871.0
1895.0
1895.0
1897.0
1874.0
1872.0
1875.0
1869.0
1864.0
1858.0
1872.0
1889.0
1867.0
1860.0
1855.0
1854.0
1839.0
1855.0
1858.0
1859.0
1872.0
1871.0
1868.0
1857.0
1840.0
1841.0
1842.0
1831.0
1826.0
1831.0
1847.0
1848.0
1816.0
1815.0
1809.0
1816.0
1812.0
1813.0
1811.0
1829.0
1866.0
1864.0
1850.0
1844.0
1838.0
1852.0
1845.0
1817.0
1836.0
1853.0
1867.0
1850.0
1842.0
1840.0
1836.0
1830.0
1829.0
1833.0
1843.0
1859.0
1875.0
1863.0
1870.0
1851.0
1864.0
1853.0
1839.0
1841.0
1844.0
1854.0
1866.0
1841.0
1825.0
1813.0
1817.0
1818.0
1815.0
1819.0
1816.0
1831.0
1839.0
1827.0
1820.0
1802.0
1802.0
1802.0
1782.0
1778.0
1801.0
1810.0
1789.0
1767.0
1759.0
1766.0
1768.0
1764.0
1757.0
1764.0
1776.0
1812.0
1796.0
1786.0
1766.0
1769.0
1786.0
1767.0
1756.0
1761.0
1786.0
1779.0
1755.0
1748.0
1743.0
1729.0
1740.0
1741.0
1730.0
1734.0
1759.0
1769.0
1750.0
1756.0
1744.0
1749.0
1748.0
1739.0
1744.0
1740.0
1757.0
1759.0
1735.0
1736.0
1727.0
1739.0
1730.0
1732.0
1735.0
1737.0
1762.0
1759.0
1755.0
1736.0
1735.0
1748.0
1734.0
1710.0
1727.0
1722.0
1731.0
1710.0
1693.0
1687.0
1676.0
1671.0
1667.0
1670.0
1673.0
1671.0
1707.0
1675.0
1673.0
1632.0
1658.0
1653.0
1656.0
1666.0
1654.0
1658.0
1655.0
1627.0
1633.0
1630.0
1638.0
1654.0
1639.0
1642.0
1638.0
1669.0
1694.0
1690.0
1680.0
1682.0
1687.0
1685.0
1683.0
1689.0
1706.0
1730.0
1717.0
1724.0
1740.0
1714.0
1707.0
1716.0
1721.0
1744.0
1743.0
1766.0
1762.0
1764.0
1741.0
1753.0
1764.0
1755.0
1779.0
1788.0
1801.0
1812.0
1787.0
1796.0
1798.0
1790.0
1797.0
1805.0
1804.0
1788.0
1785.0
1812.0
1799.0
1807.0
1813.0
1809.0
1782.0
1738.0
1759.0
1777.0
1802.0
1821.0
1804.0
1782.0
1784.0
1792.0
1793.0
1815.0
1847.0
1857.0
1883.0
1856.0
1843.0
1841.0
1856.0
1861.0
1846.0
1845.0
1838.0
1848.0
1843.0
1824.0
1821.0
1814.0
1797.0
1805.0
1800.0
1802.0
1832.0
1860.0
1899.0
1908.0
1917.0
1908.0
1932.0
1955.0
1956.0
1982.0
1957.0
1995.0
1997.0
1976.0
1981.0
1942.0
1904.0
1882.0
1869.0
1864.0
1823.0
1826.0
1787.0
1768.0
1742.0
1705.0
1686.0
1663.0
1642.0
1628.0
1628.0
1647.0
1648.0
1624.0
1631.0
1639.0
1664.0
1679.0
1710.0
1723.0
1759.0
1812.0
1843.0
1865.0
1874.0
1903.0
1932.0
1946.0
1959.0
1976.0
2005.0
2026.0
2014.0
2011.0
2014.0
2010.0
1986.0
1989.0
1996.0
1980.0
2016.0
2004.0
1986.0
1960.0
1944.0
1948.0
1945.0
1933.0
1941.0
1933.0
1955.0
1961.0
1935.0
1932.0
1923.0
1919.0
1917.0
1924.0
1928.0
1929.0
1969.0
1968.0
1950.0
1943.0
1952.0
1952.0
1927.0
1919.0
1916.0
1931.0
1943.0
1911.0
1912.0
1892.0
1886.0
1878.0
1893.0
1880.0
1871.0
1895.0
1903.0
1897.0
1879.0
1864.0
1863.0
1871.0
1842.0
1835.0
1824.0
1838.0
1841.0
1828.0
1818.0
1800.0
1794.0
1806.0
1808.0
1816.0
1815.0
1852.0
1861.0
1867.0
1862.0
1867.0
1883.0
1882.0
1879.0
1880.0
1909.0
1920.0
1917.0
1915.0
1903.0
1894.0
1891.0
1895.0
1904.0
1893.0
1903.0
1935.0
1937.0
1919.0
1899.0
1916.0
1918.0
1908.0
1890.0
1904.0
1919.0
1926.0
1900.0
1891.0
1886.0
1888.0
1874.0
1891.0
1879.0
1887.0
1921.0
1932.0
1937.0
1924.0
1905.0
1915.0
1923.0
1912.0
1899.0
1915.0
1938.0
1928.0
1920.0
1907.0
1899.0
1904.0
1900.0
1894.0
1901.0
1911.0
1949.0
1944.0
1944.0
1915.0
1913.0
1925.0
1903.0
1896.0
1910.0
1905.0
1915.0
1890.0
1892.0
1872.0
1864.0
1862.0
1861.0
1855.0
1864.0
1884.0
1898.0
1899.0
1883.0
1868.0
1892.0
1894.0
1863.0
1869.0
1870.0
1888.0
1877.0
1866.0
1854.0
1849.0
1861.0
1849.0
1846.0
1855.0
1851.0
1885.0
1877.0
1890.0
1865.0
1868.0
1885.0
1890.0
1876.0
1870.0
1875.0
1902.0
1897.0
1880.0
1872.0
1856.0
1856.0
1867.0
1852.0
1872.0
1876.0
1898.0
1897.0
1889.0
1877.0
1885.0
1892.0
1880.0
1880.0
1881.0
1899.0
1909.0
1900.0
1892.0
1889.0
1877.0
1886.0
1883.0
1889.0
1875.0
1909.0
1938.0
1929.0
1919.0
1913.0
1912.0
1904.0
1897.0
1902.0
1892.0
1919.0
1923.0
1906.0
1876.0
1878.0
1866.0
1853.0
1865.0
1858.0
1855.0
1878.0
1882.0
1873.0
1841.0
1873.0
1864.0
1831.0
1823.0
1839.0
1842.0
1865.0
1839.0
1821.0
1823.0
1831.0
1821.0
1814.0
1828.0
1833.0
1856.0
1876.0
1875.0
1880.0
1864.0
1879.0
1895.0
1879.0
1871.0
1864.0
1887.0
1893.0
1876.0
1880.0
1861.0
1860.0
1851.0
1851.0
1864.0
1865.0
1874.0
1905.0
1898.0
1888.0
1878.0
1887.0
1888.0
1880.0
1888.0
1893.0
1903.0
1899.0
1893.0
1899.0
1886.0
1886.0
1882.0
1894.0
1903.0
1901.0
1920.0
1919.0
1912.0
1911.0
1909.0
1924.0
1907.0
1910.0
1903.0
1910.0
1914.0
1903.0
1883.0
1878.0
1878.0
1866.0
1871.0
1884.0
1864.0
1887.0
1887.0
1887.0
1861.0
1869.0
1873.0
1866.0
1857.0
1857.0
1866.0
1882.0
1874.0
1856.0
1852.0
1849.0
1847.0
1849.0
1844.0
1836.0
1839.0
1861.0
1859.0
1866.0
1852.0
1837.0
1857.0
1848.0
1837.0
1835.0
1848.0
1872.0
1840.0
1832.0
1831.0
1832.0
1818.0
1829.0
1826.0
1816.0
1843.0
1847.0
1856.0
1856.0
1838.0
1833.0
1849.0
1837.0
1837.0
1839.0
1846.0
1880.0
1847.0
1841.0
1831.0
1847.0
1839.0
1846.0
1839.0
1842.0
1869.0
1871.0
1863.0
1859.0
1857.0
1872.0
1869.0
1864.0
1849.0
1882.0
1892.0
1890.0
1888.0
1876.0
1872.0
1873.0
1880.0
1881.0
1880.0
1875.0
1890.0
1875.0
1856.0
1843.0
1861.0
1867.0
1855.0
1856.0
1855.0
1858.0
1849.0
1843.0
1865.0
1855.0
1862.0
1853.0
1871.0
1878.0
1882.0
1900.0
1904.0
1912.0
1920.0
1910.0
1908.0
1917.0
1909.0
1914.0
1918.0
1912.0
1915.0
1916.0
1907.0
1907.0
1896.0
1901.0
1914.0
1907.0
1903.0
1911.0
1909.0
1911.0
1903.0
1906.0
1908.0
1896.0
1898.0
1888.0
1895.0
1902.0
1888.0
1885.0
1880.0
1879.0
1874.0
1877.0
1876.0
1878.0
1878.0
1894.0
1892.0
1884.0
1865.0
1866.0
1871.0
1858.0
1871.0
1866.0
1871.0
1860.0
1839.0
1847.0
1847.0
1839.0
1848.0
1849.0
1850.0
1846.0
1858.0
1868.0
1862.0
1874.0
1872.0
1869.0
1868.0
1868.0
1861.0
1888.0
1883.0
1871.0
1875.0
1875.0
1874.0
1865.0
1873.0
1881.0
1877.0
1875.0
1875.0
1885.0
1879.0
1876.0
1867.0
1877.0
1873.0
1878.0
1869.0
1880.0
1863.0
1856.0
1866.0
1860.0
1864.0
1851.0
1858.0
1851.0
1856.0
1857.0
1882.0
1859.0
1861.0
1861.0
1861.0
1865.0
1874.0
1849.0
1854.0
1865.0
1858.0
1880.0
1865.0
1857.0
1857.0
1852.0
1852.0
1867.0
1858.0
1860.0
1863.0
1853.0
1839.0
1844.0
1843.0
1845.0
1842.0
1840.0
1835.0
1849.0
1849.0
1838.0
1843.0
1835.0
1848.0
1844.0
1832.0
1858.0
1864.0
1854.0
1839.0
1845.0
1844.0
1844.0
1847.0
1835.0
1846.0
1841.0
1846.0
1838.0
1837.0
1832.0
1832.0
1841.0
1834.0
1846.0
1849.0
1847.0
1863.0
1857.0
1847.0
1848.0
1843.0
1864.0
1853.0
1859.0
1858.0
1862.0
1860.0
1865.0
1865.0
1866.0
1866.0
1868.0
1865.0
1868.0
1866.0
1874.0
1876.0
1875.0
1871.0
1872.0
1869.0
1877.0
1875.0
1870.0
1874.0
1878.0
1869.0
1872.0
1864.0
1856.0
1849.0
1856.0
1854.0
1865.0
1853.0
1853.0
1855.0
1856.0
1848.0
1860.0
1861.0
1845.0
1845.0
1843.0
1846.0
1858.0
1854.0
1852.0
1851.0
1849.0
1844.0
1848.0
1848.0
1852.0
1854.0
1871.0
1866.0
1863.0
1845.0
1866.0
1871.0
1877.0
1876.0
1885.0
1883.0
1884.0
1903.0
1914.0
1916.0
1907.0
1905.0
1919.0
1905.0
1917.0
1923.0
1925.0
1949.0
1931.0
1943.0
1945.0
1929.0
1936.0
1950.0
1958.0
1953.0
1974.0
1964.0
1970.0
1965.0
1976.0
1972.0
1983.0
1979.0
1973.0
1976.0
1965.0
1953.0
1954.0
1941.0
1938.0
1915.0
1909.0
1895.0
1900.0
1898.0
1897.0
1901.0
1879.0
1894.0
1898.0
1908.0
1911.0
1902.0
1890.0
1906.0
1896.0
1903.0
1902.0
1887.0
1868.0
1863.0
1839.0
1848.0
1850.0
1836.0
1823.0
1834.0
1841.0
1824.0
1816.0
1838.0
1832.0
1838.0
1833.0
1848.0
1856.0
1880.0
1866.0
1864.0
1864.0
1862.0
1878.0
1872.0
1871.0
1867.0
1865.0
1872.0
1884.0
1875.0
1880.0
1886.0
1892.0
1893.0
1907.0
1897.0
1900.0
1905.0
1915.0
1915.0
1903.0
1895.0
1899.0
1917.0
1910.0
1896.0
1911.0
1907.0
1900.0
1898.0
1907.0
1895.0
1894.0
1891.0
1900.0
1892.0
1896.0
1892.0
1899.0
1902.0
1898.0
1904.0
1871.0
1881.0
1877.0
1876.0
1861.0
1855.0
1859.0
1848.0
1838.0
1843.0
1848.0
1850.0
1839.0
1840.0
1839.0
1839.0
1843.0
1855.0
1871.0
1852.0
1857.0
1873.0
1880.0
1869.0
1882.0
1888.0
1880.0
1885.0
1874.0
1898.0
1883.0
1892.0
1897.0
1887.0
1894.0
1889.0
1873.0
1878.0
1863.0
1888.0
1892.0
1879.0
1879.0
1879.0
1874.0
1871.0
1879.0
1883.0
1896.0
1883.0
1883.0
1905.0
1898.0
1903.0
1898.0
1904.0
1899.0
1892.0
1903.0
1905.0
1905.0
1914.0
1912.0
1912.0
1899.0
1903.0
1912.0
1906.0
1913.0
1910.0
1907.0
1914.0
1908.0
1906.0
1906.0
1900.0
1887.0
1885.0
1875.0
1889.0
1894.0
1867.0
1878.0
1862.0
1862.0
1860.0
1845.0
1841.0
1847.0
1850.0
1860.0
1851.0
1859.0
1850.0
1849.0
1860.0
1850.0
1847.0
1860.0
1863.0
1859.0
1860.0
1862.0
1851.0
1859.0
1846.0
1840.0
1862.0
1855.0
1868.0
1861.0
1866.0
1864.0
1872.0
1872.0
1877.0
1878.0
1880.0
1867.0
1867.0
1859.0
1881.0
1875.0
1874.0
1886.0
1882.0
1884.0
1875.0
1869.0
1886.0
1880.0
1885.0
1872.0
1867.0
1875.0
1861.0
1867.0
1876.0
1872.0
1860.0
1869.0
1859.0
1860.0
1863.0
1863.0
1863.0
1866.0
1869.0
1869.0
1877.0
1876.0
1873.0
1871.0
1875.0
1873.0
1863.0
1861.0
1877.0
1868.0
1873.0
1871.0
1873.0
1871.0
1870.0
1880.0
1888.0
1875.0
1877.0
1889.0
1900.0
1887.0
1896.0
1902.0
1897.0
1895.0
1878.0
1889.0
1896.0
1889.0
1881.0
1886.0
1874.0
1871.0
1880.0
1875.0
1874.0
1873.0
1877.0
1882.0
1870.0
1890.0
1876.0
1878.0
1890.0
1887.0
1888.0
1895.0
1894.0
1895.0
1896.0
1883.0
1885.0
1892.0
1889.0
1879.0
1886.0
1898.0
1887.0
1888.0
1886.0
1876.0
1879.0
1876.0
1892.0
1869.0
1867.0
1875.0
1877.0
1880.0
1875.0
1854.0
1861.0
1868.0
1873.0
1866.0
1885.0
1874.0
1870.0
1876.0
1869.0
1861.0
1874.0
1866.0
1858.0
1872.0
1866.0
1870.0
1869.0
1860.0
1861.0
1860.0
1845.0
1861.0
1872.0
1862.0
1866.0
1869.0
1866.0
1855.0
1866.0
1872.0
1868.0
1864.0
1866.0
1867.0
1859.0
1869.0
1870.0
1870.0
1863.0
1862.0
1855.0
1877.0
1876.0
1874.0
1878.0
1869.0
1872.0
1877.0
1869.0
1864.0
1869.0
1865.0
1869.0
1863.0
1874.0
1869.0
1859.0
1878.0
1875.0
1864.0
1858.0
1865.0
1873.0
1862.0
1872.0
1884.0
1886.0
1873.0
1873.0
1883.0
1876.0
1869.0
1880.0
1880.0
1874.0
1881.0
1872.0
1869.0
1867.0
1873.0
1884.0
1880.0
1870.0
1878.0
1879.0
1879.0
1879.0
1868.0
1871.0
1872.0
1870.0
1871.0
1860.0
1867.0
1876.0
1872.0
1863.0
1864.0
1866.0
1845.0
1871.0
1859.0
1863.0
1876.0
1882.0
1874.0
1880.0
1874.0
1871.0
1884.0
1885.0
1875.0
1872.0
1882.0
1875.0
1875.0
1872.0
1874.0
1864.0
1864.0
1882.0
1877.0
1871.0
1871.0
1883.0
1872.0
1870.0
1871.0
1872.0
1877.0
1872.0
1872.0
1878.0
1880.0
1872.0
1875.0
1872.0
1871.0
1859.0
1861.0
1864.0
1874.0
1869.0
1880.0
1879.0
1874.0
1864.0
1873.0
1879.0
1872.0
1868.0
1872.0
1875.0
1888.0
1870.0
1867.0
1860.0
1866.0
1860.0
1867.0
1855.0
1864.0
1880.0
1878.0
1866.0
1864.0
1871.0
1871.0
1870.0
1869.0
1869.0
1863.0
1876.0
1870.0
1867.0
1871.0
1879.0
1866.0
1864.0
1867.0
1871.0
1872.0
1880.0
1879.0
1878.0
1874.0
1871.0
1877.0
1870.0
1868.0
1880.0
1867.0
1876.0
1874.0
1864.0
1864.0
1867.0
1872.0
1862.0
1865.0
1862.0
1873.0
1873.0
1880.0
1873.0
1863.0
1871.0
1863.0
1861.0
1864.0
1863.0
1871.0
1884.0
1865.0
1864.0
1857.0
1854.0
1859.0
1857.0
1854.0
1864.0
1874.0
1869.0
1866.0
1861.0
1863.0
1867.0
1864.0
1855.0
1862.0
1862.0
1862.0
1863.0
1852.0
1851.0
1856.0
1848.0
1844.0
1856.0
1847.0
1856.0
1872.0
1868.0
1853.0
1847.0
1859.0
1863.0
1847.0
1842.0
1862.0
1855.0
1856.0
1847.0
1846.0
1856.0
1847.0
1841.0
1843.0
1848.0
1849.0
1873.0
1863.0
1866.0
1857.0
1866.0
1855.0
1872.0
1860.0
1855.0
1853.0
1869.0
1863.0
1863.0
1857.0
1871.0
1863.0
1855.0
1861.0
1863.0
1875.0
1888.0
1877.0
1879.0
1874.0
1886.0
1874.0
1890.0
1875.0
1876.0
1875.0
1882.0
1892.0
1878.0
1876.0
1875.0
1873.0
1879.0
1884.0
1884.0
1890.0
1912.0
1893.0
1881.0
1879.0
1879.0
1888.0
1880.0
1884.0
1885.0
1888.0
1885.0
1880.0
1888.0
1869.0
1867.0
1876.0
1884.0
1881.0
1866.0
1886.0
1889.0
1891.0
1890.0
1878.0
1883.0
1875.0
1873.0
1884.0
1883.0
1887.0
1890.0
1883.0
1876.0
1873.0
1873.0
1870.0
1874.0
1878.0
1889.0
1889.0
1879.0
1888.0
1880.0
1879.0
1889.0
1878.0
1880.0
1875.0
1884.0
1877.0
1882.0
1869.0
1876.0
1868.0
1876.0
1872.0
1874.0
1876.0
1888.0
1894.0
1884.0
1881.0
1888.0
1893.0
1872.0
1871.0
1879.0
1870.0
1884.0
1882.0
1866.0
1869.0
1860.0
1865.0
1872.0
1863.0
1855.0
1872.0
1878.0
1889.0
1883.0
1863.0
1871.0
1878.0
1869.0
1865.0
1862.0
1878.0
1878.0
1866.0
1872.0
1859.0
1857.0
1865.0
1858.0
1855.0
1860.0
1871.0
1881.0
1868.0
1882.0
1867.0
1877.0
1873.0
1863.0
1876.0
1872.0
1871.0
1882.0
1869.0
1863.0
1852.0
1858.0
1864.0
1853.0
1856.0
1854.0
1875.0
1881.0
1873.0
1858.0
1859.0
1863.0
1859.0
1857.0
1867.0
1860.0
1860.0
1854.0
1848.0
1843.0
1847.0
1825.0
1856.0
1835.0
1846.0
1849.0
1866.0
1855.0
1852.0
1853.0
1861.0
1860.0
1848.0
1852.0
1855.0
1868.0
1872.0
1862.0
1847.0
1858.0
1844.0
1846.0
1858.0
1854.0
1857.0
1870.0
1873.0
1869.0
1866.0
1859.0
1876.0
1876.0
1864.0
1861.0
1859.0
1877.0
1872.0
1857.0
1860.0
1864.0
1849.0
1850.0
1858.0
1854.0
1869.0
1884.0
1881.0
1865.0
1868.0
1879.0
1875.0
1872.0
1868.0
1872.0
1882.0
1886.0
1871.0
1863.0
1872.0
1864.0
1871.0
1868.0
1870.0
1863.0
1879.0
1879.0
1873.0
1886.0
1872.0
1880.0
1882.0
1863.0
1854.0
1864.0
1882.0
1882.0
1867.0
1871.0
1867.0
1854.0
1845.0
1865.0
1866.0
1873.0
1880.0
1874.0
1883.0
1866.0
1869.0
1880.0
1888.0
1872.0
1872.0
1871.0
1886.0
1873.0
1872.0
1862.0
1861.0
1855.0
1868.0
1865.0
1867.0
1879.0
1899.0
1886.0
1874.0
1870.0
1887.0
1881.0
1868.0
1871.0
1869.0
1875.0
1878.0
1885.0
1874.0
1855.0
1858.0
1863.0
1877.0
1872.0
1855.0
1882.0
1891.0
1890.0
1882.0
1871.0
1881.0
1888.0
1879.0
1880.0
1878.0
1901.0
1890.0
1875.0
1866.0
1870.0
1874.0
1873.0
1877.0
1885.0
1873.0
1888.0
1887.0
1887.0
1865.0
1877.0
1864.0
1880.0
1861.0
1867.0
1875.0
1880.0
1867.0
1863.0
1855.0
1859.0
1854.0
1851.0
1861.0
1861.0
1875.0
1878.0
1871.0
1879.0
1871.0
1880.0
1879.0
1869.0
1872.0
1878.0
1881.0
1876.0
1868.0
1864.0
1860.0
1864.0
1863.0
1871.0
1863.0
1859.0
1874.0
1877.0
1885.0
1876.0
1883.0
1883.0
1867.0
1870.0
1870.0
1882.0
1885.0
1874.0
1870.0
1865.0
1874.0
1851.0
1868.0
1864.0
1870.0
1886.0
1885.0
1890.0
1876.0
1881.0
1882.0
1893.0
1870.0
1880.0
1873.0
1880.0
1885.0
1872.0
1869.0
1866.0
1861.0
1851.0
1859.0
1859.0
1861.0
1873.0
1875.0
1867.0
1876.0
1857.0
1863.0
1855.0
1855.0
1864.0
1858.0
1878.0
1867.0
1861.0
1851.0
1858.0
1851.0
1842.0
1854.0
1845.0
1868.0
1873.0
1878.0
1870.0
1857.0
1873.0
1879.0
1866.0
1872.0
1861.0
1880.0
1890.0
1871.0
1864.0
1869.0
1864.0
1856.0
1864.0
1860.0
1855.0
1877.0
1883.0
1879.0
1879.0
1869.0
1875.0
1885.0
1865.0
1872.0
1872.0
1878.0
1875.0
1873.0
1870.0
1857.0
1862.0
1858.0
1853.0
1858.0
1863.0
1880.0
1863.0
1865.0
1867.0
1859.0
1871.0
1864.0
1866.0
1864.0
1871.0
1877.0
1855.0
1858.0
1848.0
1843.0
1832.0
1850.0
1850.0
1845.0
1860.0
1866.0
1870.0
1866.0
1858.0
1868.0
1864.0
1851.0
1866.0
1856.0
1869.0
1882.0
1855.0
1852.0
1854.0
1849.0
1847.0
1859.0
1843.0
1866.0
1888.0
1876.0
1884.0
1852.0
1858.0
1872.0
1868.0
1863.0
1864.0
1872.0
1875.0
1863.0
1856.0
1860.0
1861.0
1847.0
1847.0
1870.0
1864.0
1850.0
1874.0
1888.0
1880.0
1853.0
1874.0
1879.0
1858.0
1863.0
1858.0
1871.0
1886.0
1869.0
1862.0
1857.0
1856.0
1849.0
1861.0
1863.0
1864.0
1867.0
1885.0
1866.0
1871.0
1867.0
1870.0
1863.0
1864.0
1863.0
1867.0
1864.0
1884.0
1865.0
1852.0
1844.0
1839.0
1848.0
1851.0
1863.0
1856.0
1883.0
1878.0
1874.0
1871.0
1869.0
1872.0
1879.0
1876.0
1859.0
1872.0
1871.0
1870.0
1860.0
1850.0
1858.0
1851.0
1864.0
1855.0
1860.0
1877.0
1896.0
1882.0
1878.0
1866.0
1869.0
1876.0
1862.0
1850.0
1873.0
1878.0
1880.0
1869.0
1864.0
1845.0
1858.0
1856.0
1839.0
1851.0
1863.0
1880.0
1875.0
1877.0
1867.0
1863.0
1873.0
1867.0
1863.0
1855.0
1872.0
1878.0
1874.0
1863.0
1866.0
1854.0
1863.0
1860.0
1856.0
1853.0
1861.0
1868.0
1877.0
1874.0
1861.0
1860.0
1870.0
1855.0
1857.0
1861.0
1865.0
1872.0
1869.0
1858.0
1856.0
1843.0
1848.0
1848.0
1851.0
1850.0
1865.0
1871.0
1863.0
1856.0
1869.0
1864.0
1860.0
1851.0
1858.0
1854.0
1873.0
1855.0
1850.0
1844.0
1851.0
1829.0
1844.0
1839.0
1842.0
1856.0
1880.0
1871.0
1855.0
1868.0
1851.0
1865.0
1862.0
1866.0
1854.0
1875.0
1866.0
1870.0
1856.0
1842.0
1839.0
1852.0
1841.0
1838.0
1839.0
1854.0
1861.0
1864.0
1847.0
1845.0
1859.0
1861.0
1843.0
1842.0
1839.0
1861.0
1854.0
1856.0
1844.0
1844.0
1837.0
1841.0
1839.0
1836.0
1838.0
1861.0
1868.0
1859.0
1856.0
1847.0
1865.0
1855.0
1849.0
1856.0
1863.0
1858.0
1855.0
1842.0
1845.0
1840.0
1840.0
1843.0
1837.0
1842.0
1851.0
1858.0
1859.0
1853.0
1848.0
1861.0
1858.0
1850.0
1841.0
1846.0
1872.0
1878.0
1859.0
1847.0
1849.0
1848.0
1849.0
1857.0
1850.0
1854.0
1863.0
1863.0
1868.0
1854.0
1847.0
1871.0
1850.0
1860.0
1837.0
1857.0
1862.0
1858.0
1847.0
1843.0
1831.0
1835.0
1838.0
1843.0
1836.0
1844.0
1847.0
1855.0
1854.0
1835.0
1852.0
1865.0
1853.0
1849.0
1854.0
1871.0
1857.0
1857.0
1846.0
1840.0
1847.0
1842.0
1833.0
1845.0
1844.0
1861.0
1862.0
1865.0
1862.0
1853.0
1854.0
1864.0
1839.0
1854.0
1845.0
1860.0
1875.0
1858.0
1847.0
1832.0
1840.0
1835.0
1849.0
1836.0
1849.0
1865.0
1859.0
1855.0
1860.0
1852.0
1861.0
1834.0
1856.0
1843.0
1853.0
1856.0
1852.0
1847.0
1839.0
1840.0
1834.0
1842.0
1839.0
1839.0
1840.0
1854.0
1859.0
1842.0
1839.0
1852.0
1847.0
1837.0
1823.0
1855.0
1852.0
1851.0
1844.0
1844.0
1851.0
1839.0
1839.0
1839.0
1849.0
1849.0
1874.0
1863.0
1860.0
1869.0
1863.0
1868.0
1865.0
1846.0
1851.0
1860.0
1867.0
1863.0
1864.0
1859.0
1847.0
1854.0
1856.0
1853.0
1864.0
1871.0
1889.0
1871.0
1876.0
1872.0
1874.0
1884.0
1872.0
1867.0
1869.0
1880.0
1882.0
1885.0
1871.0
1876.0
1866.0
1865.0
1867.0
1863.0
1873.0
1882.0
1886.0
1887.0
1871.0
1876.0
1879.0
1880.0
1867.0
1875.0
1874.0
1885.0
1879.0
1869.0
1858.0
1874.0
1861.0
1856.0
1860.0
1861.0
1863.0
1879.0
1870.0
1876.0
1880.0
1867.0
1878.0
1858.0
1860.0
1844.0
1863.0
1859.0
1863.0
1855.0
1837.0
1835.0
1840.0
1839.0
1844.0
1832.0
1839.0
1858.0
1848.0
1847.0
1848.0
1843.0
1852.0
1839.0
1837.0
1837.0
1846.0
1851.0
1851.0
1832.0
1827.0
1823.0
1828.0
1833.0
1828.0
1828.0
1856.0
1856.0
1846.0
1845.0
1834.0
1845.0
1848.0
1848.0
1836.0
1847.0
1854.0
1850.0
1846.0
1838.0
1835.0
1838.0
1837.0
1828.0
1840.0
1847.0
1869.0
1862.0
1862.0
1861.0
1858.0
1853.0
1862.0
1855.0
1850.0
1875.0
1884.0
1866.0
1849.0
1856.0
1857.0
1859.0
1872.0
1847.0
1864.0
1880.0
1895.0
1881.0
1881.0
1876.0
1887.0
1887.0
1888.0
1880.0
1871.0
1894.0
1894.0
1871.0
1889.0
1873.0
1876.0
1873.0
1883.0
1886.0
1877.0
1901.0
1895.0
1906.0
1887.0
1895.0
1891.0
1889.0
1893.0
1889.0
1886.0
1896.0
1891.0
1887.0
1896.0
1877.0
1880.0
1885.0
1884.0
1873.0
1888.0
1904.0
1895.0
1888.0
1882.0
1891.0
1887.0
1883.0
1869.0
1871.0
1888.0
1888.0
1882.0
1869.0
1866.0
1865.0
1865.0
1873.0
1871.0
1874.0
1889.0
1887.0
1885.0
1879.0
1866.0
1884.0
1881.0
1865.0
1874.0
1875.0
1884.0
1879.0
1871.0
1867.0
1864.0
1865.0
1866.0
1862.0
1865.0
1862.0
1884.0
1886.0
1886.0
1871.0
1878.0
1877.0
1868.0
1875.0
1869.0
1871.0
1884.0
1878.0
1868.0
1864.0
1849.0
1857.0
1876.0
1860.0
1855.0
1871.0
1871.0
1884.0
1864.0
1872.0
1871.0
1874.0
1855.0
1861.0
1874.0
1877.0
1870.0
1868.0
1859.0
1864.0
1863.0
1854.0
1872.0
1862.0
1854.0
1881.0
1884.0
1874.0
1861.0
1868.0
1888.0
1871.0
1867.0
1871.0
1875.0
1885.0
1870.0
1867.0
1869.0
1859.0
1858.0
1860.0
1858.0
1855.0
1870.0
1869.0
1881.0
1876.0
1872.0
1883.0
1881.0
1867.0
1872.0
1867.0
1884.0
1876.0
1870.0
1865.0
1862.0
1860.0
1870.0
1869.0
1860.0
1855.0
1883.0
1871.0
1889.0
1874.0
1861.0
1875.0
1874.0
1873.0
1869.0
1876.0
1870.0
1883.0
1871.0
1866.0
1863.0
1864.0
1865.0
1864.0
1876.0
1869.0
1876.0
1878.0
1876.0
1865.0
1884.0
1875.0
1870.0
1879.0
1871.0
1874.0
1880.0
1858.0
1864.0
1872.0
1872.0
1855.0
1855.0
1861.0
1859.0
1876.0
1890.0
1872.0
1871.0
1870.0
1871.0
1872.0
1861.0
1869.0
1870.0
1873.0
1868.0
1861.0
1860.0
1852.0
1856.0
1857.0
1849.0
1861.0
1854.0
1880.0
1876.0
1867.0
1864.0
1865.0
1865.0
1866.0
1848.0
1859.0
1859.0
1877.0
1873.0
1864.0
1853.0
1851.0
1854.0
1866.0
1865.0
1864.0
1876.0
1882.0
1888.0
1880.0
1867.0
1871.0
1888.0
1878.0
1864.0
1863.0
1877.0
1885.0
1870.0
1869.0
1865.0
1859.0
1864.0
1859.0
1865.0
1862.0
1888.0
1878.0
1881.0
1877.0
1882.0
1874.0
1868.0
1867.0
1872.0
1881.0
1880.0
1876.0
1867.0
1859.0
1861.0
1846.0
1865.0
1864.0
1872.0
1873.0
1892.0
1883.0
1887.0
1867.0
1876.0
1877.0
1870.0
1863.0
1880.0
1882.0
1880.0
1864.0
1867.0
1864.0
1862.0
1864.0
1861.0
1864.0
1855.0
1873.0
1877.0
1875.0
1873.0
1857.0
1870.0
1866.0
1861.0
1860.0
1864.0
1870.0
1864.0
1863.0
1839.0
1853.0
1843.0
1843.0
1848.0
1847.0
1847.0
1868.0
1867.0
1868.0
1854.0
1867.0
1866.0
1861.0
1859.0
1869.0
1879.0
1881.0
1868.0
1847.0
1857.0
1858.0
1850.0
1865.0
1847.0
1855.0
1868.0
1877.0
1872.0
1853.0
1866.0
1870.0
1872.0
1860.0
1862.0
1864.0
1880.0
1867.0
1865.0
1853.0
1848.0
1859.0
1853.0
1858.0
1860.0
1872.0
1881.0
1888.0
1875.0
1871.0
1866.0
1880.0
1880.0
1869.0
1865.0
1869.0
1880.0
1870.0
1869.0
1864.0
1866.0
1851.0
1856.0
1860.0
1861.0
1875.0
1897.0
1880.0
1876.0
1872.0
1864.0
1869.0
1873.0
1866.0
1861.0
1871.0
1871.0
1866.0
1863.0
1862.0
1858.0
1872.0
1867.0
1866.0
1855.0
1863.0
1887.0
1885.0
1869.0
1870.0
1879.0
1870.0
1862.0
1865.0
1876.0
1871.0
1869.0
1861.0
1861.0
1855.0
1853.0
1856.0
1860.0
1852.0
1864.0
1874.0
1878.0
1871.0
1861.0
1869.0
1856.0
1863.0
1864.0
1864.0
1861.0
1876.0
1852.0
1864.0
1865.0
1859.0
1851.0
1856.0
1854.0
1866.0
1867.0
1884.0
1873.0
1864.0
1862.0
1875.0
1865.0
1871.0
1856.0
1868.0
1880.0
1877.0
1860.0
1864.0
1860.0
1861.0
1867.0
1864.0
1856.0
1858.0
1885.0
1880.0
1878.0
1851.0
1880.0
1883.0
1871.0
1862.0
1871.0
1873.0
1882.0
1867.0
1862.0
1867.0
1864.0
1861.0
1862.0
1869.0
1882.0
1863.0
1879.0
1873.0
1880.0
1863.0
1874.0
1876.0
1872.0
1871.0
1873.0
1871.0
1875.0
1864.0
1852.0
1885.0
1861.0
1856.0
1862.0
1865.0
1842.0
1876.0
1881.0
1873.0
1866.0
1856.0
1874.0
1875.0
1870.0
1860.0
1864.0
1879.0
1869.0
1847.0
1862.0
1850.0
1846.0
1857.0
1859.0
1856.0
1866.0
1876.0
1877.0
1880.0
1866.0
1870.0
1865.0
1867.0
1862.0
1864.0
1881.0
1877.0
1872.0
1863.0
1860.0
1853.0
1859.0
1859.0
1864.0
1852.0
1876.0
1877.0
1866.0
1873.0
1867.0
1878.0
1867.0
1860.0
1870.0
1861.0
1876.0
1873.0
1862.0
1855.0
1860.0
1852.0
1855.0
1851.0
1853.0
1868.0
1877.0
1879.0
1876.0
1859.0
1867.0
1866.0
1863.0
1866.0
1862.0
1874.0
1871.0
1865.0
1851.0
1871.0
1857.0
1845.0
1867.0
1854.0
1860.0
1863.0
1871.0
1881.0
1871.0
1855.0
1870.0
1863.0
1859.0
1863.0
1862.0
1871.0
1880.0
1867.0
1851.0
1861.0
1851.0
1860.0
1860.0
1857.0
1858.0
1873.0
1870.0
1881.0
1865.0
1863.0
1881.0
1873.0
1864.0
1869.0
1871.0
1891.0
1871.0
1872.0
1864.0
1872.0
1862.0
1871.0
1862.0
1872.0
1878.0
1886.0
1876.0
1883.0
1870.0
1869.0
1884.0
1876.0
1874.0
1870.0
1877.0
1875.0
1873.0
1859.0
1864.0
1862.0
1861.0
1872.0
1855.0
1863.0
1868.0
1880.0
1881.0
1856.0
1879.0
1882.0
1868.0
1860.0
1869.0
1869.0
1875.0
1882.0
1866.0
1860.0
1863.0
1853.0
1860.0
1857.0
1861.0
1866.0
1878.0
1879.0
1867.0
1875.0
1872.0
1867.0
1876.0
1863.0
1863.0
1874.0
1871.0
1870.0
1869.0
1866.0
1847.0
1861.0
1847.0
1851.0
1853.0
1857.0
1869.0
1873.0
1870.0
1864.0
1873.0
1868.0
1872.0
1863.0
1858.0
1870.0
1873.0
1869.0
1847.0
1855.0
1852.0
1852.0
1854.0
1858.0
1866.0
1869.0
1877.0
1871.0
1874.0
1870.0
1868.0
1872.0
1871.0
1855.0
1870.0
1868.0
1872.0
1859.0
1856.0
1849.0
1844.0
1849.0
1855.0
1864.0
1866.0
1870.0
1867.0
1872.0
1867.0
1866.0
1864.0
1862.0
1864.0
1855.0
1875.0
1881.0
1869.0
1861.0
1844.0
1847.0
1857.0
1853.0
1856.0
1845.0
1867.0
1880.0
1879.0
1867.0
1853.0
1873.0
1868.0
1859.0
1858.0
1868.0
1869.0
1868.0
1866.0
1862.0
1857.0
1858.0
1847.0
1847.0
1854.0
1846.0
1886.0
1883.0
1873.0
1854.0
1861.0
1865.0
1863.0
1866.0
1864.0
1871.0
1880.0
1872.0
1862.0
1863.0
1849.0
1861.0
1851.0
1856.0
1869.0
1859.0
1875.0
1874.0
1875.0
1857.0
1863.0
1862.0
1871.0
1858.0
1855.0
1866.0
1868.0
1867.0
1868.0
1868.0
1860.0
1853.0
1855.0
1864.0
1854.0
1880.0
1896.0
1876.0
1873.0
1871.0
1872.0
1868.0
1870.0
1857.0
1879.0
1882.0
1871.0
1872.0
1859.0
1864.0
1850.0
1857.0
1860.0
1859.0
1867.0
1883.0
1871.0
1875.0
1855.0
1872.0
1866.0
1864.0
1863.0
1867.0
1866.0
1882.0
1878.0
1854.0
1852.0
1845.0
1848.0
1863.0
1855.0
1852.0
1876.0
1875.0
1878.0
1869.0
1866.0
1876.0
1870.0
1862.0
1851.0
1859.0
1879.0
1868.0
1860.0
1857.0
1865.0
1858.0
1858.0
1852.0
1862.0
1860.0
1873.0
1884.0
1871.0
1863.0
1885.0
1868.0
1868.0
1866.0
1867.0
1869.0
1874.0
1864.0
1864.0
1859.0
1847.0
1861.0
1859.0
1845.0
1855.0
1873.0
1882.0
1875.0
1872.0
1859.0
1867.0
1865.0
1864.0
1862.0
1857.0
1876.0
1861.0
1858.0
1858.0
1851.0
1862.0
1855.0
1863.0
1851.0
1847.0
1863.0
1881.0
1877.0
1863.0
1870.0
1871.0
1872.0
1862.0
1862.0
1867.0
1876.0
1861.0
1872.0
1856.0
1852.0
1856.0
1858.0
1859.0
1865.0
1866.0
1879.0
1869.0
1871.0
1866.0
1868.0
1873.0
1872.0
1870.0
1857.0
1888.0
1878.0
1870.0
1864.0
1860.0
1856.0
1854.0
1866.0
1848.0
1861.0
1868.0
1876.0
1874.0
1875.0
1868.0
1870.0
1881.0
1857.0
1863.0
1863.0
1871.0
1857.0
1863.0
1863.0
1857.0
1851.0
1849.0
1857.0
1850.0
1863.0
1885.0
1872.0
1871.0
1863.0
1868.0
1868.0
1867.0
1859.0
1865.0
1877.0
1883.0
1868.0
1871.0
1858.0
1855.0
1854.0
1860.0
1846.0
1859.0
1865.0
1872.0
1877.0
1877.0
1863.0
1872.0
1866.0
1867.0
1858.0
1870.0
1889.0
1864.0
1863.0
1863.0
1854.0
1857.0
1860.0
1863.0
1867.0
1862.0
1868.0
1878.0
1869.0
1874.0
1876.0
1871.0
1877.0
1863.0
1872.0
1858.0
1880.0
1867.0
1863.0
1856.0
1856.0
1859.0
1861.0
1850.0
1866.0
1859.0
1875.0
1866.0
1875.0
1861.0
1860.0
1880.0
1861.0
1865.0
1866.0
1874.0
1872.0
1870.0
1863.0
1855.0
1860.0
1857.0
1858.0
1858.0
1852.0
1868.0
1881.0
1875.0
1871.0
1861.0
1870.0
1866.0
1864.0
1866.0
1880.0
1867.0
1869.0
1867.0
1856.0
1863.0
1856.0
1837.0
1858.0
1852.0
1856.0
1876.0
1888.0
1870.0
1878.0
1870.0
1873.0
1872.0
1865.0
1862.0
1878.0
1876.0
1880.0
1864.0
1869.0
1858.0
1856.0
1861.0
1860.0
1858.0
1875.0
1876.0
1876.0
1872.0
1872.0
1880.0
1868.0
1875.0
1866.0
1860.0
1869.0
1880.0
1866.0
1856.0
1851.0
1850.0
1855.0
1851.0
1852.0
1849.0
1873.0
1896.0
1873.0
1863.0
1864.0
1869.0
1874.0
1866.0
1868.0
1853.0
1876.0
1876.0
1855.0
1858.0
1856.0
1848.0
1861.0
1848.0
1856.0
1855.0
1870.0
1875.0
1876.0
1855.0
1865.0
1866.0
1864.0
1861.0
1864.0
1876.0
1879.0
1867.0
1862.0
1855.0
1850.0
1856.0
1858.0
1853.0
1847.0
1879.0
1880.0
1870.0
1867.0
1860.0
1872.0
1872.0
1859.0
1862.0
1862.0
1863.0
1872.0
1866.0
1864.0
1851.0
1854.0
1856.0
1860.0
1851.0
1866.0
1877.0
1875.0
1874.0
1870.0
1871.0
1869.0
1862.0
1855.0
1862.0
1871.0
1866.0
1870.0
1847.0
1861.0
1854.0
1860.0
1860.0
1852.0
1849.0
1855.0
1879.0
1884.0
1876.0
1864.0
1864.0
1869.0
1863.0
1865.0
1859.0
1864.0
1875.0
1860.0
1849.0
1862.0
1860.0
1854.0
1862.0
1852.0
1857.0
1876.0
1882.0
1875.0
1866.0
1867.0
1870.0
1854.0
1862.0
1861.0
1870.0
1874.0
1863.0
1862.0
1873.0
1850.0
1856.0
1852.0
1847.0
1859.0
1861.0
1874.0
1880.0
1871.0
1862.0
1863.0
1872.0
1860.0
1865.0
1856.0
1876.0
1880.0
1871.0
1849.0
1860.0
1860.0
1849.0
1869.0
1862.0
1858.0
1870.0
1877.0
1871.0
1874.0
1848.0
1863.0
1880.0
1859.0
1863.0
1851.0
1870.0
1869.0
1857.0
1860.0
1869.0
1863.0
1852.0
1848.0
1855.0
1859.0
1875.0
1874.0
1876.0
1863.0
1874.0
1871.0
1871.0
1858.0
1865.0
1872.0
1879.0
1871.0
1865.0
1872.0
1855.0
1863.0
1852.0
1845.0
1858.0
1851.0
1878.0
1873.0
1858.0
1868.0
1859.0
1867.0
1860.0
1862.0
1859.0
1867.0
1873.0
1872.0
1856.0
1855.0
1857.0
1864.0
1858.0
1848.0
1860.0
1878.0
1879.0
1869.0
1877.0
1863.0
1864.0
1873.0
1847.0
1859.0
1867.0
1867.0
1872.0
1855.0
1856.0
1855.0
1850.0
1847.0
1854.0
1864.0
1864.0
1873.0
1868.0
1884.0
1857.0
1858.0
1872.0
1862.0
1862.0
1863.0
1865.0
1866.0
1863.0
1856.0
1850.0
1852.0
1853.0
1860.0
1855.0
1853.0
1869.0
1874.0
1883.0
1853.0
1859.0
1863.0
1871.0
1858.0
1839.0
1870.0
1867.0
1864.0
1858.0
1855.0
1846.0
1854.0
1842.0
1848.0
1861.0
1848.0
1874.0
1874.0
1862.0
1864.0
1867.0
1863.0
1867.0
1852.0
1853.0
1867.0
1863.0
1869.0
1861.0
1859.0
1851.0
1846.0
1855.0
1856.0
1865.0
1869.0
1873.0
1870.0
1873.0
1860.0
1872.0
1874.0
1866.0
1864.0
1866.0
1875.0
1870.0
1875.0
1862.0
1849.0
1864.0
1860.0
1857.0
1863.0
1855.0
1876.0
1888.0
1879.0
1866.0
1860.0
1873.0
1864.0
1863.0
1858.0
1878.0
1872.0
1864.0
1850.0
1861.0
1856.0
1841.0
1856.0
1857.0
1861.0
1868.0
1884.0
1863.0
1879.0
1868.0
1865.0
1863.0
1852.0
1864.0
1874.0
1874.0
1880.0
1865.0
1858.0
1863.0
1850.0
1862.0
1856.0
1854.0
1860.0
1872.0
1876.0
1873.0
1863.0
1866.0
1865.0
1877.0
1865.0
1857.0
1859.0
1878.0
1869.0
1869.0
1866.0
1864.0
1851.0
1862.0
1853.0
1851.0
1857.0
1881.0
1877.0
1875.0
1863.0
1864.0
1885.0
1862.0
1857.0
1865.0
1875.0
1868.0
1865.0
1859.0
1851.0
1856.0
1853.0
1859.0
1857.0
1856.0
1867.0
1884.0
1873.0
1866.0
1872.0
1868.0
1872.0
1872.0
1862.0
1861.0
1877.0
1875.0
1855.0
1853.0
1854.0
1860.0
1847.0
1847.0
1852.0
1858.0
1871.0
1878.0
1863.0
1863.0
1864.0
1874.0
1872.0
1855.0
1847.0
1867.0
1875.0
1880.0
1855.0
1854.0
1862.0
1858.0
1857.0
1864.0
1839.0
1881.0
1866.0
1880.0
1867.0
1857.0
1863.0
1871.0
1863.0
1863.0
1864.0
1873.0
1873.0
1868.0
1855.0
1850.0
1856.0
1850.0
1865.0
1866.0
1855.0
1881.0
1872.0
1872.0
1864.0
1856.0
1868.0
1876.0
1860.0
1874.0
1861.0
1878.0
1888.0
1867.0
1859.0
1858.0
1868.0
1854.0
1858.0
1854.0
1860.0
1870.0
1873.0
1877.0
1858.0
1874.0
1876.0
1863.0
1866.0
1863.0
1872.0
1886.0
1855.0
1853.0
1863.0
1853.0
1855.0
1852.0
1863.0
1852.0
1858.0
1871.0
1888.0
1867.0
1869.0
1861.0
1872.0
1863.0
1863.0
1872.0
1880.0
1872.0
1863.0
1863.0
1864.0
1858.0
1852.0
1859.0
1848.0
1858.0
1885.0
1875.0
1875.0
1870.0
1868.0
1869.0
1867.0
1865.0
1863.0
1863.0
1878.0
1872.0
1865.0
1858.0
1855.0
1859.0
1868.0
1865.0
1864.0
1865.0
1877.0
1871.0
1869.0
1870.0
1863.0
1880.0
1866.0
1876.0
1858.0
1871.0
1863.0
1871.0
1854.0
1867.0
1848.0
1855.0
1859.0
1858.0
1847.0
1872.0
1879.0
1876.0
1871.0
1868.0
1862.0
1872.0
1860.0
1870.0
1865.0
1876.0
1876.0
1864.0
1860.0
1862.0
1857.0
1847.0
1856.0
1860.0
1851.0
1871.0
1871.0
1876.0
1860.0
1872.0
1878.0
1861.0
1872.0
1868.0
1866.0
1863.0
1862.0
1859.0
1856.0
1864.0
1849.0
1860.0
1854.0
1860.0
1868.0
1876.0
1868.0
1863.0
1864.0
1867.0
1876.0
1859.0
1861.0
1867.0
1879.0
1867.0
1855.0
1868.0
1857.0
1864.0
1855.0
1852.0
1854.0
1855.0
1876.0
1878.0
1876.0
1860.0
1875.0
1870.0
1865.0
1857.0
1856.0
1872.0
1874.0
1861.0
1856.0
1857.0
1860.0
1848.0
1845.0
1858.0
1855.0
1859.0
1872.0
1873.0
1868.0
1875.0
1872.0
1867.0
1853.0
1859.0
1855.0
1875.0
1860.0
1867.0
1859.0
1862.0
1850.0
1846.0
1862.0
1840.0
1861.0
1876.0
1875.0
1873.0
1865.0
1866.0
1861.0
1875.0
1867.0
1859.0
1871.0
1874.0
1877.0
1860.0
1867.0
1872.0
1864.0
1853.0
1866.0
1854.0
1867.0
1885.0
1884.0
1869.0
1869.0
1863.0
1869.0
1876.0
1861.0
1872.0
1877.0
1867.0
1867.0
1857.0
1860.0
1858.0
1857.0
1860.0
1872.0
1854.0
1865.0
1877.0
1864.0
1879.0
1857.0
1874.0
1865.0
1849.0
1872.0
1869.0
1871.0
1879.0
1876.0
1854.0
1849.0
1859.0
1846.0
1865.0
1866.0
1857.0
1871.0
1872.0
1880.0
1863.0
1861.0
1878.0
1861.0
1865.0
1861.0
1878.0
1878.0
1873.0
1864.0
1862.0
1856.0
1853.0
1852.0
1848.0
1857.0
1862.0
1871.0
1868.0
1871.0
1860.0
1865.0
1875.0
1857.0
1856.0
1862.0
1875.0
1870.0
1864.0
1866.0
1860.0
1856.0
1861.0
1854.0
1856.0
1855.0
1867.0
1873.0
1878.0
1869.0
1873.0
1870.0
1863.0
1858.0
1856.0
1869.0
1878.0
1878.0
1859.0
1860.0
1860.0
1853.0
1856.0
1850.0
1846.0
1854.0
1878.0
1876.0
1873.0
1870.0
1859.0
1860.0
1877.0
1858.0
1864.0
1871.0
1876.0
1862.0
1847.0
1858.0
1856.0
1847.0
1853.0
1853.0
1854.0
1865.0
1884.0
1870.0
1870.0
1854.0
1865.0
1866.0
1855.0
1855.0
1864.0
1870.0
1873.0
1862.0
1852.0
1856.0
1850.0
1853.0
1856.0
1846.0
1841.0
1876.0
1874.0
1874.0
1876.0
1872.0
1869.0
1868.0
1859.0
1862.0
1865.0
1879.0
1881.0
1864.0
1864.0
1861.0
1862.0
1857.0
1858.0
1864.0
1873.0
1874.0
1880.0
1877.0
1864.0
1874.0
1878.0
1861.0
1858.0
1868.0
1874.0
1867.0
1868.0
1861.0
1858.0
1851.0
1861.0
1854.0
1860.0
1857.0
1874.0
1876.0
1872.0
1866.0
1856.0
1872.0
1878.0
1861.0
1854.0
1869.0
1879.0
1871.0
1858.0
1851.0
1864.0
1849.0
1854.0
1854.0
1855.0
1856.0
1888.0
1876.0
1867.0
1864.0
1862.0
1872.0
1861.0
1862.0
1857.0
1862.0
1877.0
1869.0
1855.0
1860.0
1850.0
1848.0
1864.0
1849.0
1856.0
1865.0
1871.0
1869.0
1872.0
1859.0
1867.0
1870.0
1869.0
1869.0
1854.0
1868.0
1864.0
1870.0
1853.0
1854.0
1851.0
1845.0
1859.0
1847.0
1858.0
1877.0
1887.0
1873.0
1861.0
1858.0
1866.0
1863.0
1859.0
1860.0
1862.0
1882.0
1869.0
1865.0
1854.0
1858.0
1849.0
1850.0
1853.0
1858.0
1858.0
1868.0
1867.0
1867.0
1870.0
1869.0
1866.0
1863.0
1859.0
1855.0
1879.0
1888.0
1862.0
1865.0
1862.0
1864.0
1856.0
1864.0
1857.0
1858.0
1872.0
1875.0
1869.0
1869.0
1858.0
1873.0
1878.0
1863.0
1862.0
1866.0
1872.0
1873.0
1858.0
1858.0
1869.0
1858.0
1846.0
1855.0
1852.0
1855.0
1881.0
1870.0
1873.0
1857.0
1864.0
1873.0
1872.0
1856.0
1867.0
1871.0
1872.0
1857.0
1857.0
1862.0
1872.0
1854.0
1873.0
1850.0
1858.0
1868.0
1872.0
1871.0
1863.0
1864.0
1869.0
1865.0
1855.0
1866.0
1856.0
1878.0
1869.0
1873.0
1865.0
1857.0
1847.0
1866.0
1854.0
1847.0
1860.0
1876.0
1881.0
1867.0
1863.0
1872.0
1868.0
1861.0
1864.0
1855.0
1868.0
1880.0
1871.0
1868.0
1863.0
1860.0
1856.0
1866.0
1857.0
1846.0
1868.0
1875.0
1881.0
1869.0
1871.0
1870.0
1880.0
1866.0
1863.0
1864.0
1863.0
1881.0
1868.0
1865.0
1857.0
1860.0
1856.0
1851.0
1860.0
1857.0
1864.0
1874.0
1870.0
1872.0
1847.0
1865.0
1863.0
1851.0
1853.0
1858.0
1881.0
1870.0
1864.0
1856.0
1855.0
1847.0
1856.0
1854.0
1847.0
1868.0
1869.0
1874.0
1875.0
1862.0
1860.0
1859.0
1870.0
1859.0
1860.0
1875.0
1882.0
1862.0
1872.0
1879.0
1862.0
1845.0
1860.0
1860.0
1851.0
1863.0
1877.0
1877.0
1873.0
1858.0
1869.0
1865.0
1872.0
1855.0
1873.0
1876.0
1878.0
1859.0
1861.0
1854.0
1844.0
1854.0
1868.0
1847.0
1849.0
1867.0
1872.0
1872.0
1868.0
1864.0
1870.0
1868.0
1859.0
1854.0
1867.0
1872.0
1868.0
1872.0
1858.0
1857.0
1858.0
1858.0
1853.0
1866.0
1865.0
1876.0
1874.0
1863.0
1858.0
1869.0
1875.0
1870.0
1851.0
1864.0
1872.0
1874.0
1866.0
1860.0
1856.0
1847.0
1856.0
1854.0
1855.0
1850.0
1865.0
1889.0
1871.0
1862.0
1865.0
1877.0
1871.0
1855.0
1847.0
1865.0
1871.0
1884.0
1858.0
1854.0
1860.0
1857.0
1847.0
1853.0
1853.0
1858.0
1874.0
1876.0
1877.0
1871.0
1863.0
1875.0
1875.0
1865.0
1860.0
1876.0
1880.0
1865.0
1859.0
1855.0
1849.0
1856.0
1860.0
1849.0
1873.0
1873.0
1873.0
1872.0
1868.0
1862.0
1868.0
1854.0
1870.0
1858.0
1868.0
1855.0
1869.0
1864.0
1857.0
1864.0
1860.0
1856.0
1853.0
1857.0
1859.0
1876.0
1880.0
1876.0
1870.0
1872.0
1874.0
1872.0
1855.0
1862.0
1871.0
1870.0
1861.0
1867.0
1866.0
1845.0
1845.0
1856.0
1856.0
1856.0
1864.0
1874.0
1877.0
1875.0
1847.0
1866.0
1865.0
1865.0
1859.0
1866.0
1877.0
1875.0
1871.0
1854.0
1870.0
1860.0
1861.0
1867.0
1857.0
1854.0
1871.0
1871.0
1877.0
1871.0
1871.0
1865.0
1880.0
1868.0
1863.0
1859.0
1874.0
1869.0
1851.0
1857.0
1864.0
1864.0
1852.0
1852.0
1865.0
1855.0
1880.0
1890.0
1873.0
1870.0
1868.0
1876.0
1857.0
1872.0
1864.0
1870.0
1888.0
1878.0
1871.0
1860.0
1848.0
1861.0
1863.0
1859.0
1860.0
1876.0
1884.0
1895.0
1872.0
1857.0
1857.0
1869.0
1852.0
1861.0
1861.0
1870.0
1865.0
1864.0
1859.0
1854.0
1852.0
1841.0
1843.0
1846.0
1860.0
1868.0
1869.0
1872.0
1859.0
1851.0
1865.0
1869.0
1859.0
1871.0
1874.0
1869.0
1867.0
1867.0
1864.0
1856.0
1855.0
1851.0
1854.0
1860.0
1859.0
1882.0
1867.0
1867.0
1866.0
1868.0
1864.0
1864.0
1865.0
1859.0
1880.0
1872.0
1867.0
1863.0
1864.0
1863.0
1855.0
1851.0
1863.0
1860.0
1871.0
1874.0
1875.0
1874.0
1859.0
1876.0
1877.0
1868.0
1872.0
1867.0
1876.0
1890.0
1874.0
1862.0
1854.0
1865.0
1855.0
1872.0
1870.0
1872.0
1875.0
1873.0
1878.0
1865.0
1874.0
1873.0
1865.0
1861.0
1859.0
1865.0
1868.0
1863.0
1863.0
1867.0
1865.0
1861.0
1857.0
1863.0
1852.0
1865.0
1876.0
1877.0
1869.0
1866.0
1872.0
1872.0
1864.0
1876.0
1861.0
1879.0
1878.0
1871.0
1864.0
1872.0
1855.0
1862.0
1876.0
1879.0
1867.0
1879.0
1881.0
1875.0
1879.0
1878.0
1878.0
1880.0
1875.0
1873.0
1871.0
1886.0
1884.0
1879.0
1867.0
1868.0
1849.0
1857.0
1868.0
1857.0
1867.0
1882.0
1874.0
1873.0
1865.0
1875.0
1873.0
1868.0
1863.0
1871.0
1881.0
1875.0
1871.0
1858.0
1856.0
1864.0
1853.0
1863.0
1862.0
1866.0
1877.0
1883.0
1882.0
1872.0
1858.0
1870.0
1876.0
1865.0
1855.0
1869.0
1879.0
1872.0
1873.0
1870.0
1873.0
1870.0
1850.0
1871.0
1861.0
1865.0
1879.0
1881.0
1877.0
1867.0
1876.0
1873.0
1879.0
1871.0
1862.0
1876.0
1880.0
1870.0
1863.0
1855.0
1867.0
1860.0
1859.0
1859.0
1866.0
1874.0
1875.0
1879.0
1869.0
1868.0
1867.0
1869.0
1868.0
1860.0
1863.0
1876.0
1872.0
1860.0
1865.0
1851.0
1859.0
1855.0
1852.0
1855.0
1862.0
1881.0
1887.0
1880.0
1861.0
1857.0
1867.0
1873.0
1868.0
1846.0
1873.0
1874.0
1865.0
1869.0
1852.0
1857.0
1849.0
1867.0
1853.0
1845.0
1847.0
1872.0
1866.0
1867.0
1860.0
1859.0
1861.0
1847.0
1847.0
1856.0
1860.0
1867.0
1866.0
1853.0
1859.0
1849.0
1845.0
1856.0
1846.0
1848.0
1861.0
1880.0
1873.0
1863.0
1859.0
1855.0
1880.0
1858.0
1864.0
1859.0
1867.0
1865.0
1853.0
1852.0
1861.0
1864.0
1853.0
1858.0
1852.0
1864.0
1867.0
1872.0
1871.0
1861.0
1855.0
1865.0
1858.0
1855.0
1862.0
1861.0
1879.0
1867.0
1860.0
1852.0
1856.0
1872.0
1866.0
1855.0
1870.0
1870.0
1880.0
1871.0
1876.0
1867.0
1876.0
1869.0
1866.0
1864.0
1857.0
1876.0
1872.0
1873.0
1847.0
1869.0
1862.0
1860.0
1862.0
1850.0
1855.0
1878.0
1877.0
1875.0
1873.0
1884.0
1876.0
1869.0
1866.0
1859.0
1867.0
1874.0
1877.0
1863.0
1870.0
1857.0
1864.0
1859.0
1857.0
1860.0
1861.0
1864.0
1868.0
1864.0
1854.0
1858.0
1867.0
1857.0
1861.0
1864.0
1866.0
1872.0
1853.0
1858.0
1841.0
1848.0
1853.0
1869.0
1851.0
1852.0
1868.0
1873.0
1874.0
1863.0
1855.0
1880.0
1867.0
1859.0
1851.0
1855.0
1880.0
1869.0
1858.0
1857.0
1859.0
1856.0
1857.0
1858.0
1854.0
1868.0
1878.0
1874.0
1878.0
1863.0
1867.0
1863.0
1869.0
1864.0
1863.0
1866.0
1871.0
1866.0
1863.0
1864.0
1860.0
1866.0
1872.0
1855.0
1862.0
1871.0
1889.0
1888.0
1873.0
1865.0
1872.0
1871.0
1875.0
1866.0
1876.0
1879.0
1878.0
1855.0
1862.0
1880.0
1867.0
1874.0
1859.0
1861.0
1872.0
1881.0
1886.0
1878.0
1874.0
1876.0
1879.0
1882.0
1871.0
1873.0
1871.0
1888.0
1888.0
1880.0
1860.0
1854.0
1863.0
1869.0
1858.0
